0.058536
0.058536
0.014634
0.082926
0.063414
-0.082926
-0.326826
-0.448776
-0.46341
-0.526824
-0.492678
-0.278046
-0.199998
-0.112194
-0.082926
0.004878
0.068292
0.043902
-0.009756
0.063414
0.082926
0.09756
0.019512
0.07317
0.117072
0.07317
0.014634
0.087804
0.107316
0.12195
0.039024
0.082926
0.131706
0.092682
0.029268
0.102438
0.12195
0.141462
0.068292
0.126828
0.17073
0.131706
0.07317
0.156096
0.175608
0.19512
0.117072
0.185364
0.234144
0.199998
0.14634
0.234144
0.263412
0.29268
0.224388
0.29268
0.346338
0.331704
0.282924
0.36585
0.39024
0.41463
0.346338
0.395118
0.43902
0.395118
0.31707
0.375606
0.380484
0.385362
0.253656
0.2439
0.29268
0.224388
0.12195
0.17073
0.17073
0.175608
0.058536
0.053658
0.117072
0.068292
-0.009756
0.053658
0.063414
0.078048
-0.009756
-0.009756
0.07317
0.034146
-0.029268
0.034146
0.053658
0.07317
-0.014634
0.029268
0.07317
0.034146
-0.039024
0.034146
0.053658
0.078048
-0.009756
0.029268
0.07317
0.034146
-0.034146
0.02439
0.043902
0.063414
-0.014634
0.02439
0.063414
0.02439
-0.039024
0.02439
0.039024
0.053658
-0.02439
0.019512
0.058536
0.019512
-0.04878
0.019512
0.034146
0.053658
-0.029268
0.009756
0.04878
0.019512
-0.053658
0.009756
0.029268
0.04878
-0.034146
-0.034146
0.04878
0.009756
-0.053658
0.004878
0.02439
0.039024
-0.043902
0
0.039024
0
-0.068292
0
0.019512
0.039024
-0.04878
-0.053658
0.034146
0
-0.07317
-0.009756
0.009756
0.034146
-0.043902
-0.04878
0.029268
-0.004878
-0.068292
-0.004878
0.014634
0.034146
-0.043902
0
0.039024
0.004878
-0.068292
0.004878
0.02439
0.039024
-0.043902
0
0.039024
0.009756
-0.058536
0
0.019512
0.039024
-0.039024
0
0.039024
0.009756
-0.058536
0
0.019512
0.039024
-0.043902
-0.04878
0.039024
-0.004878
-0.068292
-0.009756
0.014634
0.039024
-0.053658
-0.053658
0.029268
0
-0.068292
-0.009756
0.014634
0.039024
-0.043902
-0.04878
0.029268
0
-0.063414
0
0.019512
0.039024
-0.043902
-0.004878
0.034146
0
-0.058536
0.004878
0.02439
0.043902
-0.034146
0.019512
0.068292
0.063414
-0.009756
0.039024
0.063414
0.087804
0.004878
-0.004878
0.068292
0.009756
-0.058536
0
0.019512
0.034146
-0.053658
-0.058536
0.019512
-0.009756
-0.082926
-0.014634
0.004878
0.02439
-0.058536
-0.063414
0.02439
-0.004878
-0.068292
0
0.029268
0.063414
0
0.068292
0.126828
0.09756
-0.004878
-0.087804
-0.180486
-0.385362
-0.521946
-0.551214
-0.419508
-0.326826
-0.253656
-0.092682
-0.043902
0
-0.029268
0.034146
0.087804
0.058536
-0.004878
0.053658
0.078048
0.102438
0.02439
0.02439
0.112194
0.082926
0.014634
0.078048
0.102438
0.12195
0.04878
0.087804
0.126828
0.102438
0.039024
0.107316
0.131706
0.156096
0.082926
0.126828
0.17073
0.151218
0.087804
0.156096
0.180486
0.204876
0.136584
0.185364
0.229266
0.21951
0.17073
0.2439
0.273168
0.302436
0.2439
0.302436
0.351216
0.336582
0.282924
0.356094
0.380484
0.404874
0.326826
0.321948
0.399996
0.356094
0.263412
0.297558
0.302436
0.307314
0.185364
0.160974
0.209754
0.160974
0.07317
0.107316
0.117072
0.131706
0.029268
0.019512
0.092682
0.053658
-0.014634
0.034146
0.053658
0.07317
-0.009756
-0.014634
0.063414
0.034146
-0.029268
0.019512
0.043902
0.063414
-0.014634
-0.019512
0.053658
0.029268
-0.034146
0.014634
0.034146
0.053658
-0.02439
-0.029268
0.043902
0.014634
-0.04878
0.004878
0.02439
0.04878
-0.034146
-0.034146
0.043902
0.014634
-0.053658
0
0.02439
0.043902
-0.034146
-0.039024
0.039024
0.009756
-0.053658
0.004878
0.019512
0.034146
-0.034146
-0.039024
0.029268
0
-0.058536
0
0.019512
0.034146
-0.043902
-0.04878
0.02439
0
-0.063414
-0.014634
0.004878
0.029268
-0.04878
-0.053658
0.019512
0
-0.068292
-0.014634
0.004878
0.02439
-0.043902
-0.04878
0.019512
-0.004878
-0.068292
-0.009756
0.009756
0.029268
-0.043902
-0.053658
0.02439
-0.004878
-0.078048
-0.02439
0
0.019512
-0.063414
-0.068292
0.009756
-0.019512
-0.087804
-0.034146
-0.014634
0.004878
-0.07317
-0.078048
-0.009756
-0.034146
-0.107316
-0.043902
-0.019512
0
-0.078048
-0.082926
0.009756
-0.014634
-0.078048
-0.014634
0.004878
0.02439
-0.058536
-0.063414
0.014634
-0.004878
-0.07317
-0.014634
0.004878
0.02439
-0.058536
-0.063414
0.019512
-0.009756
-0.07317
-0.009756
0.009756
0.034146
-0.029268
0.029268
0.07317
0.034146
-0.029268
0.034146
0.04878
0.063414
-0.043902
-0.063414
0.009756
-0.019512
-0.092682
-0.04878
-0.029268
-0.009756
-0.087804
-0.092682
-0.019512
-0.043902
-0.102438
-0.039024
-0.019512
0
-0.07317
-0.034146
0.009756
0.004878
-0.043902
0.029268
0.063414
0.09756
0.053658
0.043902
0.07317
-0.09756
-0.39024
-0.478044
-0.478044
-0.482922
-0.492678
-0.287802
-0.180486
-0.112194
-0.112194
-0.009756
0.029268
0.068292
0
0.04878
0.092682
0.068292
0.009756
0.063414
0.087804
0.112194
0.039024
0.034146
0.117072
0.09756
0.02439
0.082926
0.107316
0.126828
0.04878
0.043902
0.12195
0.09756
0.039024
0.102438
0.126828
0.156096
0.082926
0.131706
0.175608
0.165852
0.102438
0.17073
0.199998
0.229266
0.165852
0.21951
0.26829
0.263412
0.209754
0.282924
0.31707
0.351216
0.297558
0.346338
0.395118
0.385362
0.326826
0.385362
0.404874
0.424386
0.31707
0.307314
0.36585
0.312192
0.209754
0.234144
0.239022
0.248778
0.117072
0.09756
0.160974
0.117072
0.02439
0.058536
0.078048
0.09756
-0.004878
-0.014634
0.063414
0.034146
-0.034146
0.02439
0.043902
0.068292
-0.014634
-0.019512
0.063414
0.043902
-0.039024
0.029268
0.053658
0.078048
-0.004878
-0.009756
0.078048
0.053658
-0.019512
0.039024
0.063414
0.087804
0
-0.009756
0.078048
0.053658
-0.014634
0.034146
0.058536
0.082926
0
-0.009756
0.078048
0.058536
-0.02439
0.039024
0.063414
0.082926
-0.004878
-0.014634
0.063414
0.043902
-0.039024
0.004878
0.029268
0.058536
-0.034146
-0.039024
0.039024
0.014634
-0.063414
-0.014634
0.009756
0.039024
-0.053658
-0.058536
0.02439
0
-0.082926
-0.02439
0
0.029268
-0.068292
-0.078048
0.014634
-0.004878
-0.087804
-0.02439
0.004878
0.034146
-0.058536
-0.063414
0.02439
0.004878
-0.07317
-0.014634
0.009756
0.039024
-0.04878
-0.053658
0.034146
0.014634
-0.068292
-0.004878
0.02439
0.053658
-0.043902
-0.053658
0.04878
0.02439
-0.053658
-0.004878
0.029268
0.063414
-0.029268
-0.039024
0.04878
0.034146
-0.043902
0.014634
0.039024
0.068292
-0.02439
-0.029268
0.058536
0.034146
-0.053658
0.004878
0.034146
0.063414
-0.039024
-0.053658
0.039024
0.014634
-0.068292
-0.014634
0.014634
0.043902
-0.053658
-0.068292
0.02439
0.004878
-0.082926
-0.029268
0
0.029268
-0.063414
-0.07317
0.019512
0
-0.087804
-0.029268
0
0.029268
-0.063414
-0.068292
0.039024
0.043902
-0.034146
0.004878
0.034146
0.068292
-0.039024
-0.053658
0.029268
-0.009756
-0.126828
-0.185364
-0.185364
-0.258534
-0.346338
-0.360972
-0.214632
-0.239022
-0.395118
-0.312192
-0.258534
-0.204876
-0.36585
-0.395118
-0.239022
-0.2439
-0.385362
-0.287802
-0.204876
-0.126828
-0.239022
-0.253656
-0.04878
-0.063414
-0.258534
-0.302436
-0.346338
-0.521946
-0.692676
-0.7317
-0.482922
-0.307314
-0.282924
-0.04878
0.04878
0.151218
0.053658
0.039024
0.229266
0.253656
0.117072
0.224388
0.312192
0.399996
0.29268
0.278046
0.478044
0.507312
0.356094
0.443898
0.51219
0.580482
0.429264
0.404874
0.590238
0.580482
0.41463
0.4878
0.546336
0.60975
0.443898
0.41463
0.595116
0.604872
0.448776
0.541458
0.60975
0.678042
0.53658
0.507312
0.687798
0.70731
0.570726
0.668286
0.736578
0.809748
0.692676
0.668286
0.848772
0.858528
0.717066
0.809748
0.87804
0.946332
0.785358
0.75609
0.907308
0.882918
0.697554
0.736578
0.78048
0.82926
0.60975
0.56097
0.673164
0.653652
0.458532
0.497556
0.546336
0.595116
0.43902
0.409752
0.556092
0.551214
0.395118
0.468288
0.531702
0.595116
0.443898
0.41463
0.580482
0.58536
0.434142
0.507312
0.570726
0.63414
0.478044
0.448776
0.599994
0.60975
0.468288
0.546336
0.60975
0.668286
0.517068
0.482922
0.629262
0.629262
0.478044
0.551214
0.604872
0.663408
0.502434
0.468288
0.624384
0.624384
0.473166
0.53658
0.604872
0.668286
0.507312
0.473166
0.614628
0.614628
0.473166
0.521946
0.580482
0.639018
0.497556
0.473166
0.629262
0.624384
0.468288
0.526824
0.58536
0.643896
0.497556
0.473166
0.639018
0.648774
0.507312
0.58536
0.648774
0.712188
0.565848
0.531702
0.687798
0.692676
0.53658
0.599994
0.648774
0.702432
0.556092
0.517068
0.65853
0.65853
0.517068
0.595116
0.65853
0.721944
0.556092
0.51219
0.653652
0.643896
0.482922
0.556092
0.619506
0.68292
0.526824
0.492678
0.648774
0.65853
0.502434
0.556092
0.60975
0.668286
0.517068
0.478044
0.629262
0.63414
0.482922
0.541458
0.595116
0.653652
0.492678
0.458532
0.604872
0.60975
0.453654
0.521946
0.58536
0.643896
0.492678
0.458532
0.629262
0.643896
0.478044
0.521946
0.58536
0.643896
0.492678
0.458532
0.60975
0.60975
0.453654
0.517068
0.580482
0.639018
0.4878
0.453654
0.599994
0.599994
0.43902
0.497556
0.56097
0.619506
0.458532
0.424386
0.590238
0.629262
0.473166
0.521946
0.580482
0.639018
0.429264
0.380484
0.531702
0.507312
0.351216
0.409752
0.468288
0.531702
0.360972
0.31707
0.46341
0.458532
0.307314
0.399996
0.468288
0.541458
0.385362
0.351216
0.502434
0.51219
0.356094
0.409752
0.4878
0.565848
0.41463
0.375606
0.565848
0.546336
0.351216
0.297558
0.248778
0.043902
-0.190242
-0.263412
-0.09756
0.029268
0.014634
0.19512
0.29268
0.395118
0.29268
0.263412
0.429264
0.43902
0.26829
0.307314
0.331704
0.360972
0.204876
0.160974
0.29268
0.248778
0.126828
0.165852
0.21951
0.278046
0.126828
0.102438
0.263412
0.26829
0.136584
0.204876
0.26829
0.326826
0.17073
0.136584
0.26829
0.278046
0.160974
0.239022
0.302436
0.36585
0.224388
0.19512
0.34146
0.375606
0.263412
0.346338
0.404874
0.468288
0.346338
0.321948
0.46341
0.43902
0.26829
0.34146
0.395118
0.453654
0.31707
0.282924
0.399996
0.351216
0.156096
0.160974
0.19512
0.229266
0.034146
-0.014634
0.087804
0.068292
-0.092682
-0.053658
-0.009756
0.039024
-0.12195
-0.165852
-0.078048
-0.092682
-0.204876
-0.107316
-0.043902
0.014634
-0.09756
-0.126828
-0.019512
-0.029268
-0.160974
-0.112194
-0.063414
-0.019512
-0.14634
-0.17073
-0.04878
-0.04878
-0.17073
-0.126828
-0.082926
-0.039024
-0.156096
-0.175608
-0.04878
-0.053658
-0.180486
-0.117072
-0.068292
-0.014634
-0.156096
-0.190242
-0.07317
-0.087804
-0.224388
-0.180486
-0.126828
-0.078048
-0.19512
-0.214632
-0.053658
-0.09756
-0.214632
-0.165852
-0.12195
-0.07317
-0.190242
-0.214632
-0.09756
-0.092682
-0.209754
-0.151218
-0.112194
-0.068292
-0.19512
-0.21951
-0.092682
-0.078048
-0.204876
-0.160974
-0.112194
-0.058536
-0.180486
-0.209754
-0.092682
-0.082926
-0.199998
-0.151218
-0.102438
-0.04878
-0.175608
-0.209754
-0.087804
-0.078048
-0.214632
-0.17073
-0.112194
-0.053658
-0.190242
-0.21951
-0.092682
-0.078048
-0.209754
-0.165852
-0.117072
-0.063414
-0.199998
-0.239022
-0.107316
-0.09756
-0.224388
-0.17073
-0.12195
-0.068292
-0.204876
-0.234144
-0.117072
-0.102438
-0.234144
-0.175608
-0.126828
-0.07317
-0.190242
-0.214632
-0.082926
-0.058536
-0.180486
-0.141462
-0.092682
-0.039024
-0.14634
-0.175608
-0.063414
-0.063414
-0.180486
-0.136584
-0.087804
-0.034146
-0.160974
-0.190242
-0.078048
-0.078048
-0.199998
-0.160974
-0.112194
-0.058536
-0.180486
-0.214632
-0.102438
-0.087804
-0.214632
-0.165852
-0.112194
-0.058536
-0.17073
-0.199998
-0.07317
-0.034146
-0.136584
-0.107316
-0.058536
-0.009756
-0.131706
-0.160974
-0.053658
-0.053658
-0.19512
-0.141462
-0.087804
-0.034146
-0.165852
-0.199998
-0.082926
-0.063414
-0.190242
-0.14634
-0.09756
-0.043902
-0.160974
-0.19512
-0.078048
-0.058536
-0.175608
-0.131706
-0.068292
-0.004878
-0.09756
-0.12195
0.009756
0.053658
-0.078048
-0.082926
-0.107316
-0.287802
-0.541458
-0.643896
-0.575604
-0.502434
-0.4878
-0.312192
-0.21951
-0.126828
-0.175608
-0.185364
-0.058536
-0.02439
-0.156096
-0.092682
-0.034146
0.02439
-0.117072
-0.14634
-0.043902
-0.04878
-0.151218
-0.09756
-0.063414
-0.02439
-0.112194
-0.126828
-0.034146
-0.034146
-0.117072
-0.078048
-0.043902
-0.009756
-0.102438
-0.112194
-0.019512
-0.014634
-0.053658
-0.004878
0.019512
0.04878
-0.009756
-0.014634
0.058536
0.078048
0.034146
0.078048
0.107316
0.136584
0.087804
0.078048
0.160974
0.185364
0.14634
0.185364
0.214632
0.2439
0.19512
0.185364
0.248778
0.239022
0.156096
0.160974
0.17073
0.185364
0.068292
0.039024
0.068292
0.034146
-0.04878
-0.04878
-0.039024
-0.029268
-0.107316
-0.126828
-0.082926
-0.087804
-0.156096
-0.141462
-0.117072
-0.092682
-0.160974
-0.17073
-0.112194
-0.112194
-0.175608
-0.14634
-0.12195
-0.102438
-0.160974
-0.17073
-0.107316
-0.107316
-0.165852
-0.136584
-0.112194
-0.087804
-0.14634
-0.160974
-0.092682
-0.092682
-0.156096
-0.131706
-0.102438
-0.078048
-0.141462
-0.151218
-0.107316
-0.107316
-0.17073
-0.131706
-0.117072
-0.102438
-0.17073
-0.175608
-0.107316
-0.12195
-0.19512
-0.175608
-0.14634
-0.112194
-0.156096
-0.160974
-0.078048
-0.09756
-0.19512
-0.156096
-0.12195
-0.087804
-0.14634
-0.165852
-0.112194
-0.131706
-0.204876
-0.175608
-0.14634
-0.12195
-0.199998
-0.209754
-0.141462
-0.136584
-0.19512
-0.165852
-0.136584
-0.107316
-0.17073
-0.180486
-0.107316
-0.112194
-0.180486
-0.141462
-0.107316
-0.07317
-0.180486
-0.199998
-0.117072
-0.092682
-0.17073
-0.175608
-0.160974
-0.14634
-0.19512
-0.209754
-0.117072
-0.136584
-0.2439
-0.214632
-0.175608
-0.131706
-0.185364
-0.19512
-0.136584
-0.12195
-0.185364
-0.160974
-0.141462
-0.117072
-0.185364
-0.199998
-0.117072
-0.09756
-0.14634
-0.12195
-0.117072
-0.107316
-0.160974
-0.126828
-0.092682
-0.112194
-0.185364
-0.160974
-0.136584
-0.112194
-0.180486
-0.199998
-0.107316
-0.131706
-0.185364
-0.204876
-0.209754
-0.278046
-0.34146
-0.009756
0.07317
-0.019512
-0.053658
0.004878
0.02439
0.039024
-0.039024
-0.063414
-0.04878
-0.063414
-0.14634
-0.112194
-0.07317
-0.034146
-0.102438
-0.126828
-0.058536
-0.068292
-0.165852
-0.156096
-0.126828
-0.102438
-0.234144
-0.278046
-0.253656
-0.263412
-0.331704
-0.263412
-0.204876
-0.136584
-0.09756
-0.029268
0.009756
-0.014634
-0.175608
-0.321948
-0.36585
-0.43902
-0.473166
-0.302436
-0.180486
-0.092682
-0.14634
-0.131706
-0.117072
-0.09756
-0.165852
-0.19512
-0.165852
-0.107316
-0.209754
-0.204876
-0.160974
-0.12195
-0.141462
-0.107316
-0.082926
-0.092682
-0.141462
-0.087804
-0.07317
-0.058536
-0.209754
-0.26829
-0.263412
-0.180486
-0.14634
-0.039024
0.009756
0.063414
0.029268
0.019512
0.107316
0.136584
0
0.087804
0.151218
0.21951
0.102438
0.092682
0.160974
0.165852
0.151218
0.239022
0.29268
0.346338
0.229266
0.31707
0.385362
0.336582
0.214632
0.209754
0.224388
0.239022
0.190242
0.185364
0.234144
0.204876
0.102438
0.092682
0.107316
0.126828
0.043902
0.014634
0.043902
0.043902
0.004878
0.019512
0.034146
0.04878
-0.014634
-0.029268
0.039024
0.034146
-0.068292
-0.092682
-0.07317
-0.053658
-0.078048
-0.039024
-0.004878
0.009756
-0.04878
-0.07317
-0.07317
-0.07317
-0.07317
-0.078048
-0.029268
-0.053658
-0.12195
-0.087804
-0.078048
-0.063414
-0.14634
-0.160974
-0.087804
-0.112194
-0.258534
-0.21951
-0.273168
-0.34146
-0.356094
-0.239022
-0.17073
-0.092682
-0.14634
-0.136584
-0.12195
-0.107316
-0.102438
-0.07317
-0.039024
-0.04878
-0.107316
-0.092682
-0.063414
-0.034146
-0.087804
-0.102438
-0.04878
-0.04878
-0.102438
-0.078048
-0.053658
-0.029268
-0.082926
-0.102438
-0.053658
-0.053658
-0.112194
-0.09756
-0.07317
-0.043902
-0.082926
-0.092682
-0.053658
-0.053658
-0.107316
-0.087804
-0.068292
-0.04878
-0.102438
-0.112194
-0.053658
-0.04878
-0.107316
-0.078048
-0.053658
-0.029268
-0.087804
-0.102438
-0.053658
-0.04878
-0.102438
-0.082926
-0.063414
-0.043902
-0.092682
-0.102438
-0.053658
-0.053658
-0.09756
-0.082926
-0.058536
-0.039024
-0.092682
-0.09756
-0.043902
-0.039024
-0.087804
-0.058536
-0.039024
-0.014634
-0.068292
-0.082926
-0.034146
-0.034146
-0.087804
-0.068292
-0.043902
-0.02439
-0.082926
-0.092682
-0.039024
-0.034146
-0.082926
-0.063414
-0.043902
-0.02439
-0.07317
-0.082926
-0.043902
-0.039024
-0.092682
-0.092682
-0.07317
-0.04878
-0.102438
-0.117072
-0.068292
-0.053658
-0.102438
-0.082926
-0.063414
-0.043902
-0.082926
-0.092682
-0.053658
-0.043902
-0.092682
-0.07317
-0.053658
-0.029268
-0.058536
-0.034146
-0.004878
-0.014634
-0.053658
-0.039024
-0.019512
-0.004878
-0.07317
-0.102438
-0.053658
-0.053658
-0.09756
-0.092682
-0.078048
-0.058536
-0.09756
-0.107316
-0.07317
-0.068292
-0.107316
-0.09756
-0.078048
-0.053658
-0.102438
-0.107316
-0.078048
-0.07317
-0.092682
-0.063414
-0.029268
0.009756
0.019512
-0.019512
-0.014634
-0.131706
-0.370728
-0.58536
-0.604872
-0.624384
-0.551214
-0.399996
-0.307314
-0.165852
-0.12195
-0.068292
-0.043902
-0.02439
-0.039024
-0.039024
-0.009756
-0.004878
-0.063414
-0.053658
-0.02439
0.019512
0.029268
-0.009756
-0.009756
0
-0.019512
-0.009756
0.004878
0.019512
-0.034146
-0.043902
0.014634
0.068292
0.058536
0.034146
0.043902
0.058536
0.039024
0.043902
0.043902
0.087804
0.082926
0.07317
0.092682
0.112194
0.082926
0.07317
0.14634
0.156096
0.141462
0.151218
0.175608
0.204876
0.185364
0.204876
0.224388
0.2439
0.214632
0.258534
0.273168
0.29268
0.248778
0.2439
0.248778
0.214632
0.141462
0.117072
0.107316
0.07317
0.019512
-0.029268
-0.053658
-0.063414
-0.102438
-0.131706
-0.12195
-0.112194
-0.156096
-0.175608
-0.151218
-0.156096
-0.136584
-0.117072
-0.126828
-0.136584
-0.102438
-0.068292
-0.058536
-0.14634
-0.209754
-0.263412
-0.297558
-0.395118
-0.531702
-0.599994
-0.580482
-0.551214
-0.556092
-0.551214
-0.531702
-0.51219
-0.468288
-0.39024
-0.356094
-0.336582
-0.34146
-0.258534
-0.253656
-0.239022
-0.224388
-0.224388
-0.21951
-0.214632
-0.180486
-0.19512
-0.209754
-0.239022
-0.258534
-0.26829
-0.224388
-0.239022
-0.302436
-0.307314
-0.26829
-0.234144
-0.26829
-0.29268
-0.234144
-0.19512
-0.165852
-0.151218
-0.151218
-0.141462
-0.12195
-0.112194
-0.112194
-0.141462
-0.151218
-0.156096
-0.136584
-0.117072
-0.141462
-0.160974
-0.160974
-0.14634
-0.136584
-0.136584
-0.156096
-0.21951
-0.282924
-0.31707
-0.326826
-0.36585
-0.380484
-0.351216
-0.360972
-0.370728
-0.395118
-0.434142
-0.448776
-0.36585
-0.356094
-0.404874
-0.39024
-0.331704
-0.278046
-0.2439
-0.224388
-0.356094
-0.507312
-0.551214
-0.531702
-0.453654
-0.395118
-0.478044
-0.502434
-0.380484
-0.453654
-0.41463
-0.404874
-0.34146
-0.239022
-0.160974
-0.126828
-0.102438
-0.112194
0.092682
0.063414
-0.14634
-0.458532
-0.590238
-0.531702
-0.380484
-0.302436
-0.234144
-0.229266
-0.21951
-0.307314
-0.409752
-0.468288
-0.599994
-0.751212
-0.75609
-0.736578
-0.63414
-0.551214
-0.56097
-0.502434
-0.399996
-0.351216
-0.360972
-0.336582
-0.287802
-0.253656
-0.2439
-0.2439
-0.321948
-0.380484
-0.429264
-0.395118
-0.307314
-0.229266
-0.209754
-0.224388
-0.209754
-0.204876
-0.17073
-0.17073
-0.156096
-0.12195
-0.087804
-0.078048
-0.092682
-0.09756
-0.092682
-0.068292
-0.043902
-0.068292
-0.07317
-0.034146
-0.063414
-0.107316
-0.209754
-0.287802
-0.424386
-0.507312
-0.531702
-0.507312
-0.443898
-0.321948
-0.239022
-0.209754
-0.160974
-0.12195
-0.09756
-0.087804
-0.082926
-0.082926
-0.068292
-0.07317
-0.07317
-0.07317
-0.053658
-0.034146
-0.029268
-0.02439
-0.043902
-0.039024
-0.029268
-0.02439
-0.043902
-0.04878
-0.04878
-0.07317
-0.078048
-0.082926
-0.09756
-0.102438
-0.117072
-0.126828
-0.136584
-0.151218
-0.131706
-0.117072
-0.09756
-0.07317
-0.043902
-0.082926
-0.063414
-0.07317
-0.068292
-0.034146
0.019512
0.039024
0.019512
0.09756
0.058536
0.063414
0.034146
0.034146
0.039024
0.004878
-0.039024
-0.082926
-0.117072
-0.19512
-0.224388
-0.2439
-0.273168
-0.278046
-0.21951
-0.199998
-0.131706
-0.07317
-0.053658
-0.053658
-0.04878
-0.102438
-0.141462
-0.14634
-0.160974
-0.224388
-0.356094
-0.370728
-0.39024
-0.31707
-0.273168
-0.253656
-0.17073
-0.151218
-0.117072
-0.092682
-0.068292
-0.078048
-0.082926
-0.058536
-0.04878
-0.043902
-0.014634
-0.019512
-0.019512
-0.029268
-0.034146
-0.029268
-0.009756
-0.009756
-0.039024
-0.039024
-0.034146
-0.019512
-0.019512
-0.014634
-0.039024
-0.019512
0
0.02439
0.087804
0.273168
0.419508
0.399996
0.190242
-0.029268
0.029268
0.09756
0.248778
0.395118
0.46341
0.326826
0.141462
0.058536
-0.019512
-0.039024
-0.063414
-0.078048
-0.082926
-0.082926
-0.063414
-0.068292
-0.063414
-0.053658
-0.043902
-0.063414
-0.053658
-0.04878
-0.053658
-0.063414
-0.07317
-0.068292
-0.058536
-0.058536
-0.07317
-0.063414
-0.058536
-0.058536
-0.058536
-0.058536
-0.058536
-0.04878
-0.039024
-0.039024
-0.04878
-0.068292
-0.07317
-0.07317
-0.068292
-0.07317
-0.063414
-0.058536
-0.063414
-0.082926
-0.063414
-0.053658
-0.039024
-0.034146
-0.068292
-0.063414
-0.068292
-0.063414
-0.058536
-0.058536
-0.053658
-0.068292
-0.063414
-0.078048
-0.063414
-0.082926
-0.068292
-0.07317
-0.078048
-0.063414
-0.043902
-0.034146
-0.053658
-0.082926
-0.063414
-0.058536
-0.053658
-0.068292
-0.07317
-0.078048
-0.063414
-0.087804
-0.092682
-0.07317
-0.053658
-0.078048
-0.063414
-0.058536
-0.043902
-0.02439
-0.014634
-0.02439
-0.034146
-0.039024
-0.039024
-0.029268
-0.043902
-0.078048
-0.068292
-0.063414
-0.053658
-0.092682
-0.107316
-0.078048
-0.087804
-0.063414
-0.082926
-0.078048
-0.068292
-0.082926
-0.092682
-0.078048
-0.087804
-0.07317
-0.063414
-0.058536
-0.053658
-0.043902
-0.019512
0
0.043902
-0.034146
-0.082926
-0.156096
-0.331704
-0.517068
-0.599994
-0.60975
-0.56097
-0.429264
-0.297558
-0.229266
-0.126828
-0.078048
-0.043902
-0.029268
-0.019512
-0.019512
0.009756
0.004878
0
-0.004878
0.019512
0.02439
0.039024
0.02439
0.019512
0.034146
0.053658
0.043902
0.039024
0.04878
0.063414
0.058536
0.053658
0.063414
0.07317
0.078048
0.082926
0.078048
0.092682
0.107316
0.117072
0.126828
0.14634
0.156096
0.165852
0.180486
0.185364
0.204876
0.224388
0.248778
0.278046
0.282924
0.297558
0.312192
0.346338
0.356094
0.351216
0.370728
0.395118
0.399996
0.360972
0.395118
0.39024
0.331704
0.302436
0.287802
0.26829
0.234144
0.19512
0.180486
0.156096
0.117072
0.082926
0.082926
0.068292
0.053658
0.039024
0.029268
0.029268
0.034146
0.043902
0.029268
0.009756
-0.009756
-0.014634
0.014634
-0.009756
-0.009756
-0.019512
-0.009756
0.004878
-0.019512
-0.034146
-0.034146
-0.029268
-0.04878
-0.043902
-0.039024
-0.034146
-0.058536
-0.063414
-0.014634
-0.004878
-0.043902
-0.039024
-0.02439
-0.009756
-0.034146
-0.019512
-0.019512
-0.009756
-0.014634
-0.034146
-0.019512
-0.004878
-0.034146
-0.043902
-0.014634
0
-0.043902
-0.04878
-0.043902
-0.034146
-0.029268
-0.058536
-0.043902
-0.039024
-0.058536
-0.053658
-0.053658
-0.053658
-0.04878
-0.07317
-0.078048
-0.068292
-0.053658
-0.058536
-0.04878
-0.039024
-0.053658
-0.043902
-0.034146
-0.034146
-0.029268
-0.034146
-0.034146
-0.029268
-0.053658
-0.063414
-0.043902
-0.039024
-0.058536
-0.04878
-0.04878
-0.053658
-0.063414
-0.068292
-0.063414
-0.068292
-0.063414
-0.053658
-0.058536
-0.058536
-0.063414
-0.07317
-0.068292
-0.07317
-0.063414
-0.07317
-0.068292
-0.058536
-0.058536
-0.07317
-0.068292
-0.058536
-0.082926
-0.082926
-0.078048
-0.07317
-0.087804
-0.09756
-0.068292
-0.063414
-0.087804
-0.092682
-0.092682
-0.082926
-0.082926
-0.087804
-0.087804
-0.068292
-0.063414
-0.053658
-0.04878
-0.043902
-0.053658
-0.058536
-0.043902
-0.034146
-0.043902
-0.053658
-0.034146
-0.009756
-0.02439
-0.034146
-0.019512
-0.014634
-0.014634
-0.039024
-0.029268
0
0.014634
0.019512
0.029268
0.029268
0.009756
0.004878
0.004878
0.009756
-0.014634
-0.029268
-0.039024
-0.043902
-0.063414
-0.07317
-0.053658
-0.034146
-0.07317
-0.087804
-0.07317
-0.068292
-0.07317
-0.078048
-0.07317
-0.063414
-0.07317
-0.078048
-0.078048
-0.078048
-0.053658
-0.039024
-0.014634
0.019512
0.029268
0.004878
-0.019512
-0.136584
-0.312192
-0.521946
-0.56097
-0.595116
-0.565848
-0.46341
-0.385362
-0.224388
-0.151218
-0.078048
-0.04878
-0.014634
-0.009756
-0.019512
0
-0.014634
-0.02439
0.019512
0.02439
0.034146
0.014634
0.004878
0.043902
0.043902
0.019512
0.043902
0.043902
0.04878
0.058536
0.034146
0.034146
0.087804
0.068292
0.078048
0.082926
0.09756
0.107316
0.087804
0.09756
0.117072
0.117072
0.141462
0.156096
0.175608
0.175608
0.190242
0.199998
0.239022
0.234144
0.26829
0.29268
0.31707
0.326826
0.321948
0.34146
0.375606
0.380484
0.380484
0.395118
0.409752
0.356094
0.326826
0.31707
0.302436
0.263412
0.234144
0.229266
0.19512
0.151218
0.107316
0.092682
0.078048
0.04878
0.014634
0.019512
0.02439
0.009756
-0.004878
-0.019512
0.004878
0
-0.029268
-0.02439
-0.014634
-0.02439
-0.029268
-0.019512
-0.019512
-0.034146
-0.04878
-0.019512
0.004878
-0.029268
-0.039024
-0.014634
-0.019512
-0.043902
-0.034146
-0.019512
-0.004878
-0.034146
-0.053658
-0.029268
-0.009756
-0.02439
-0.034146
-0.029268
-0.019512
-0.039024
-0.058536
-0.058536
-0.029268
-0.039024
-0.04878
-0.029268
-0.009756
-0.043902
-0.058536
-0.039024
-0.04878
-0.058536
-0.039024
-0.04878
-0.058536
-0.058536
-0.063414
-0.043902
-0.043902
-0.043902
-0.063414
-0.058536
-0.04878
-0.058536
-0.063414
-0.04878
-0.063414
-0.068292
-0.04878
-0.043902
-0.034146
-0.078048
-0.087804
-0.04878
-0.04878
-0.07317
-0.063414
-0.053658
-0.043902
-0.053658
-0.058536
-0.063414
-0.058536
-0.087804
-0.068292
-0.063414
-0.053658
-0.043902
-0.068292
-0.07317
-0.063414
-0.087804
-0.078048
-0.063414
-0.04878
-0.068292
-0.078048
-0.07317
-0.04878
-0.07317
-0.068292
-0.053658
-0.039024
-0.063414
-0.07317
-0.058536
-0.04878
-0.082926
-0.068292
-0.063414
-0.053658
-0.058536
-0.063414
-0.053658
-0.07317
-0.07317
-0.058536
-0.053658
-0.043902
-0.082926
-0.092682
-0.058536
-0.043902
-0.082926
-0.087804
-0.063414
-0.039024
-0.058536
-0.07317
-0.07317
-0.04878
-0.04878
-0.058536
-0.058536
-0.053658
-0.082926
-0.087804
-0.058536
-0.053658
-0.058536
-0.04878
-0.043902
-0.043902
-0.063414
-0.053658
-0.039024
-0.053658
-0.087804
-0.043902
-0.02439
-0.004878
-0.014634
-0.029268
-0.034146
-0.019512
-0.029268
-0.029268
-0.019512
-0.004878
-0.07317
-0.087804
-0.04878
-0.053658
-0.058536
-0.058536
-0.058536
-0.07317
-0.078048
-0.07317
-0.063414
-0.058536
-0.082926
-0.078048
-0.068292
-0.058536
-0.053658
-0.068292
-0.053658
-0.009756
-0.014634
-0.009756
0.019512
0.04878
0
-0.087804
-0.151218
-0.39024
-0.565848
-0.590238
-0.53658
-0.429264
-0.312192
-0.204876
-0.14634
-0.068292
-0.04878
-0.039024
-0.014634
0.004878
0
-0.004878
0
0.004878
-0.009756
-0.014634
0.009756
0.034146
0.039024
0.029268
0.034146
0.063414
0.029268
0.009756
0.034146
0.063414
0.04878
0.039024
0.082926
0.078048
0.063414
0.078048
0.082926
0.112194
0.131706
0.12195
0.12195
0.14634
0.151218
0.141462
0.156096
0.17073
0.165852
0.156096
0.17073
0.239022
0.263412
0.258534
0.248778
0.2439
0.297558
0.326826
0.34146
0.336582
0.312192
0.31707
0.336582
0.351216
0.282924
0.263412
0.263412
0.229266
0.19512
0.151218
0.14634
0.117072
0.068292
0.039024
0.029268
0.039024
0.009756
-0.009756
-0.014634
-0.029268
-0.039024
-0.014634
-0.009756
-0.039024
-0.014634
-0.039024
-0.02439
-0.009756
0
0.02439
0.043902
0.029268
-0.02439
-0.034146
-0.029268
-0.019512
-0.068292
-0.092682
-0.078048
-0.053658
-0.063414
-0.039024
-0.034146
-0.02439
-0.053658
-0.063414
-0.034146
-0.07317
-0.082926
-0.053658
-0.043902
-0.034146
-0.058536
-0.068292
-0.043902
-0.004878
-0.087804
-0.112194
-0.09756
-0.063414
-0.053658
-0.04878
-0.068292
-0.126828
-0.160974
-0.112194
-0.112194
-0.107316
-0.136584
-0.141462
-0.14634
-0.078048
-0.107316
-0.156096
-0.160974
-0.160974
-0.117072
-0.12195
-0.107316
-0.136584
-0.17073
-0.136584
-0.126828
-0.112194
-0.151218
-0.141462
-0.156096
-0.107316
-0.14634
-0.165852
-0.156096
-0.141462
-0.160974
-0.126828
-0.12195
-0.117072
-0.126828
-0.151218
-0.14634
-0.14634
-0.19512
-0.141462
-0.102438
-0.102438
-0.180486
-0.185364
-0.160974
-0.131706
-0.126828
-0.156096
-0.126828
-0.151218
-0.156096
-0.175608
-0.165852
-0.151218
-0.160974
-0.151218
-0.151218
-0.160974
-0.160974
-0.14634
-0.14634
-0.141462
-0.131706
-0.175608
-0.156096
-0.126828
-0.185364
-0.185364
-0.160974
-0.136584
-0.175608
-0.190242
-0.190242
-0.151218
-0.14634
-0.165852
-0.165852
-0.175608
-0.180486
-0.160974
-0.14634
-0.141462
-0.19512
-0.185364
-0.185364
-0.165852
-0.14634
-0.180486
-0.175608
-0.141462
-0.14634
-0.126828
-0.112194
-0.09756
-0.092682
-0.136584
-0.14634
-0.165852
-0.209754
-0.204876
-0.199998
-0.190242
-0.204876
-0.21951
-0.185364
-0.214632
-0.224388
-0.209754
-0.199998
-0.190242
-0.21951
-0.239022
-0.229266
-0.190242
-0.204876
-0.229266
-0.204876
-0.180486
-0.165852
-0.156096
-0.151218
-0.09756
-0.04878
-0.034146
-0.068292
-0.204876
-0.41463
-0.551214
-0.590238
-0.58536
-0.53658
-0.404874
-0.385362
-0.312192
-0.239022
-0.199998
-0.175608
-0.126828
-0.141462
-0.160974
-0.141462
-0.117072
-0.112194
-0.102438
-0.087804
-0.087804
-0.112194
-0.117072
-0.112194
-0.102438
-0.09756
-0.082926
-0.068292
-0.087804
-0.131706
-0.117072
-0.102438
-0.063414
-0.043902
-0.07317
-0.078048
-0.043902
-0.053658
-0.082926
-0.063414
-0.034146
-0.02439
-0.029268
0
0.014634
0.014634
0.009756
0.019512
0.04878
0.07317
0.039024
0.063414
0.092682
0.131706
0.14634
0.160974
0.175608
0.151218
0.14634
0.175608
0.17073
0.141462
0.14634
0.12195
0.087804
0.068292
0.043902
0.034146
0.019512
-0.02439
-0.034146
-0.02439
-0.014634
-0.09756
-0.112194
-0.117072
-0.082926
-0.092682
-0.117072
-0.112194
-0.102438
-0.12195
-0.126828
-0.131706
-0.112194
-0.107316
-0.136584
-0.126828
-0.112194
-0.12195
-0.126828
-0.112194
-0.12195
-0.117072
-0.107316
-0.107316
-0.117072
-0.131706
-0.141462
-0.141462
-0.160974
-0.131706
-0.136584
-0.12195
-0.102438
-0.126828
-0.141462
-0.141462
-0.151218
-0.126828
-0.131706
-0.131706
-0.126828
-0.117072
-0.151218
-0.160974
-0.156096
-0.14634
-0.126828
-0.136584
-0.14634
-0.156096
-0.141462
-0.131706
-0.165852
-0.17073
-0.126828
-0.12195
-0.112194
-0.126828
-0.160974
-0.190242
-0.17073
-0.14634
-0.156096
-0.141462
-0.12195
-0.14634
-0.151218
-0.131706
-0.175608
-0.370728
-0.614628
-0.697554
-0.78048
-0.478044
-0.395118
-0.395118
-0.395118
-0.224388
-0.12195
-0.117072
-0.107316
-0.175608
-0.234144
-0.273168
-0.307314
-0.302436
-0.29268
-0.263412
-0.229266
-0.224388
-0.209754
-0.199998
-0.180486
-0.190242
-0.185364
-0.185364
-0.180486
-0.17073
-0.160974
-0.165852
-0.141462
-0.126828
-0.112194
-0.112194
-0.09756
-0.082926
-0.136584
-0.14634
-0.09756
-0.107316
-0.078048
-0.07317
-0.058536
-0.04878
-0.078048
-0.082926
-0.117072
-0.126828
-0.117072
-0.107316
-0.087804
-0.082926
-0.175608
-0.190242
-0.126828
-0.165852
-0.165852
-0.165852
-0.180486
-0.190242
-0.151218
-0.117072
-0.102438
-0.107316
-0.09756
-0.09756
-0.112194
-0.126828
-0.117072
-0.131706
-0.12195
-0.126828
-0.156096
-0.14634
-0.136584
-0.141462
-0.156096
-0.165852
-0.092682
-0.063414
-0.078048
-0.078048
-0.07317
-0.078048
-0.043902
-0.087804
-0.273168
-0.526824
-0.643896
-0.653652
-0.65853
-0.58536
-0.453654
-0.380484
-0.239022
-0.180486
-0.112194
-0.107316
-0.087804
-0.063414
-0.04878
-0.053658
-0.034146
-0.034146
-0.078048
-0.082926
-0.087804
-0.07317
-0.063414
-0.058536
-0.102438
-0.12195
-0.131706
-0.12195
-0.112194
-0.107316
-0.126828
-0.09756
-0.063414
-0.058536
-0.058536
-0.043902
-0.02439
-0.004878
0.02439
0.039024
0.053658
0.04878
0.039024
0.068292
0.12195
0.185364
0.229266
0.239022
0.302436
0.331704
0.375606
0.39024
0.404874
0.399996
0.395118
0.458532
0.458532
0.507312
0.502434
0.468288
0.43902
0.51219
0.458532
0.443898
0.39024
0.312192
0.204876
0.190242
0.17073
0.190242
0.190242
0.141462
0.087804
0.04878
0.034146
0.034146
0.02439
0.019512
0.043902
-0.004878
0.034146
0.014634
-0.039024
-0.043902
-0.053658
-0.029268
-0.053658
-0.07317
-0.034146
-0.04878
-0.019512
-0.02439
-0.039024
-0.058536
-0.063414
-0.039024
-0.009756
-0.053658
-0.078048
-0.07317
-0.063414
-0.058536
-0.078048
-0.078048
-0.082926
-0.07317
-0.063414
-0.078048
-0.102438
-0.12195
-0.087804
-0.07317
-0.082926
-0.117072
-0.112194
-0.102438
-0.092682
-0.102438
-0.107316
-0.102438
-0.063414
-0.068292
-0.078048
-0.078048
-0.07317
-0.107316
-0.092682
-0.078048
-0.082926
-0.09756
-0.141462
-0.112194
-0.078048
-0.087804
-0.082926
-0.082926
-0.07317
-0.068292
-0.092682
-0.082926
-0.068292
-0.092682
-0.107316
-0.087804
-0.07317
-0.078048
-0.12195
-0.102438
-0.087804
-0.112194
-0.12195
-0.09756
-0.078048
-0.09756
-0.117072
-0.12195
-0.12195
-0.087804
-0.092682
-0.092682
-0.092682
-0.102438
-0.087804
-0.092682
-0.09756
-0.087804
-0.092682
-0.092682
-0.082926
-0.112194
-0.092682
-0.09756
-0.102438
-0.102438
-0.078048
-0.078048
-0.082926
-0.09756
-0.087804
-0.082926
-0.068292
-0.053658
-0.087804
-0.078048
-0.09756
-0.078048
-0.078048
-0.058536
-0.034146
-0.029268
-0.04878
-0.053658
-0.034146
-0.029268
-0.034146
-0.014634
0.004878
-0.068292
-0.09756
-0.078048
-0.078048
-0.087804
-0.092682
-0.09756
-0.102438
-0.092682
-0.112194
-0.09756
-0.058536
-0.07317
-0.102438
-0.087804
-0.07317
-0.082926
-0.07317
-0.058536
-0.04878
-0.068292
-0.04878
0.004878
0.063414
0.02439
-0.07317
-0.136584
-0.351216
-0.507312
-0.56097
-0.53658
-0.468288
-0.346338
-0.229266
-0.180486
-0.112194
-0.087804
-0.043902
-0.034146
-0.019512
-0.014634
-0.034146
-0.009756
0.009756
0
-0.004878
0
0
0.019512
0.039024
0.039024
0.02439
0.039024
0.02439
0.029268
0.039024
0.04878
0.043902
0.053658
0.107316
0.107316
0.117072
0.107316
0.09756
0.107316
0.087804
0.131706
0.136584
0.151218
0.117072
0.107316
0.102438
0.107316
0.131706
0.156096
0.156096
0.185364
0.199998
0.209754
0.229266
0.239022
0.2439
0.229266
0.263412
0.29268
0.273168
0.253656
0.229266
0.209754
0.185364
0.165852
0.14634
0.151218
0.117072
0.102438
0.07317
0.043902
0.02439
0.02439
-0.02439
-0.043902
-0.04878
-0.039024
-0.02439
-0.058536
-0.039024
-0.02439
-0.014634
-0.029268
-0.02439
-0.039024
-0.053658
-0.019512
-0.019512
-0.029268
-0.019512
-0.034146
-0.014634
-0.02439
-0.043902
-0.04878
-0.034146
-0.029268
-0.019512
0
-0.043902
-0.043902
-0.04878
-0.039024
-0.058536
-0.058536
-0.053658
-0.058536
-0.063414
-0.063414
-0.07317
-0.078048
-0.063414
-0.058536
-0.07317
-0.063414
-0.053658
-0.058536
-0.07317
-0.082926
-0.078048
-0.07317
-0.068292
-0.09756
-0.102438
-0.082926
-0.068292
-0.082926
-0.087804
-0.068292
-0.063414
-0.043902
-0.068292
-0.063414
-0.063414
-0.068292
-0.068292
-0.068292
-0.029268
-0.058536
-0.063414
-0.043902
-0.02439
-0.039024
-0.058536
-0.063414
-0.063414
-0.058536
-0.039024
-0.034146
-0.019512
-0.019512
-0.039024
-0.043902
-0.053658
-0.029268
-0.02439
-0.029268
-0.034146
-0.029268
-0.082926
-0.087804
-0.07317
-0.04878
-0.034146
-0.039024
-0.043902
-0.043902
-0.04878
-0.04878
-0.043902
-0.034146
-0.043902
-0.043902
-0.039024
-0.02439
-0.004878
0
0.02439
0.014634
-0.019512
-0.014634
0
0.004878
-0.04878
-0.063414
-0.043902
-0.034146
-0.053658
-0.043902
-0.039024
-0.063414
-0.07317
-0.04878
-0.043902
-0.053658
-0.063414
-0.058536
-0.053658
-0.07317
-0.04878
-0.034146
-0.019512
-0.004878
-0.014634
0
0.034146
0.058536
-0.009756
-0.04878
-0.19512
-0.399996
-0.517068
-0.507312
-0.473166
-0.380484
-0.263412
-0.209754
-0.092682
-0.034146
0.004878
0.004878
0.019512
0.029268
0.019512
0.02439
0.034146
0.053658
0.029268
0.039024
0.058536
0.063414
0.04878
0.063414
0.058536
0.07317
0.068292
0.068292
0.082926
0.087804
0.063414
0.058536
0.092682
0.112194
0.117072
0.117072
0.131706
0.141462
0.117072
0.141462
0.156096
0.17073
0.19512
0.190242
0.190242
0.21951
0.229266
0.239022
0.26829
0.297558
0.29268
0.302436
0.321948
0.331704
0.312192
0.34146
0.36585
0.351216
0.331704
0.336582
0.34146
0.31707
0.278046
0.258534
0.2439
0.209754
0.165852
0.14634
0.117072
0.107316
0.087804
0.068292
0.053658
0.063414
0.063414
0.053658
0.043902
0.034146
0.019512
0.004878
-0.004878
0.009756
0.004878
0.004878
0.009756
0.014634
-0.004878
0.004878
0.039024
0.02439
0.019512
0.014634
0.009756
0.009756
0.034146
0.053658
0.039024
0.014634
0.029268
0.034146
0.043902
0.043902
0.019512
0.029268
0.019512
0.019512
0.019512
0.029268
0.039024
0
-0.004878
0.004878
0.019512
0.029268
0
0
0
-0.004878
0.004878
0.004878
0.014634
-0.004878
-0.004878
-0.004878
-0.019512
-0.029268
-0.009756
0.004878
-0.004878
-0.009756
-0.019512
-0.014634
0.004878
0.019512
-0.029268
-0.039024
-0.039024
0.009756
0.019512
0.014634
0.004878
-0.004878
-0.014634
0.009756
0.02439
0.009756
-0.009756
-0.009756
0
0.004878
0.009756
0.014634
0.009756
0.014634
0.014634
0.019512
0.019512
0.004878
0
0.014634
0.014634
0.009756
0.029268
0.019512
0.004878
0
0.009756
0
-0.009756
0.009756
-0.02439
-0.004878
0.014634
0
-0.004878
0
0.004878
0.004878
0.014634
0.019512
0.029268
0.039024
0.034146
0.043902
0.043902
0.04878
0.053658
0.058536
0.068292
0.029268
0.004878
-0.004878
0.009756
0.014634
-0.004878
0
0.004878
0.014634
-0.004878
-0.009756
-0.009756
-0.004878
-0.014634
-0.009756
0.004878
0.004878
-0.009756
-0.014634
-0.004878
-0.004878
0.019512
0.034146
0.04878
0.063414
0.078048
0.07317
0.082926
-0.068292
-0.278046
-0.34146
-0.429264
-0.453654
-0.370728
-0.31707
-0.190242
-0.087804
-0.063414
-0.029268
0.019512
0.029268
0.02439
0.034146
0.063414
0.058536
0.058536
0.063414
0.063414
0.068292
0.07317
0.068292
0.04878
0.063414
0.07317
0.082926
0.09756
0.058536
0.053658
0.058536
0.117072
0.102438
0.087804
0.092682
0.112194
0.12195
0.107316
0.09756
0.131706
0.141462
0.14634
0.151218
0.165852
0.165852
0.156096
0.175608
0.190242
0.209754
0.214632
0.229266
0.253656
0.26829
0.278046
0.282924
0.29268
0.29268
0.302436
0.312192
0.326826
0.282924
0.273168
0.26829
0.253656
0.248778
0.199998
0.185364
0.165852
0.136584
0.092682
0.068292
0.078048
0.053658
0.029268
0.02439
0.02439
0.029268
0.014634
0
-0.004878
-0.014634
-0.009756
-0.004878
0
-0.019512
-0.034146
-0.039024
0.009756
0.009756
-0.009756
0
0.014634
0.019512
-0.004878
-0.009756
0
0.009756
0
0.004878
0.009756
-0.009756
0
0.009756
0.014634
0.004878
0
0
-0.014634
-0.029268
-0.029268
0.009756
-0.004878
-0.004878
-0.014634
-0.02439
-0.034146
-0.02439
-0.043902
-0.039024
-0.009756
-0.009756
-0.04878
-0.043902
-0.043902
-0.043902
-0.04878
-0.014634
-0.029268
-0.029268
-0.039024
-0.034146
-0.029268
-0.043902
-0.053658
-0.053658
-0.02439
-0.029268
-0.019512
-0.029268
-0.043902
-0.04878
-0.04878
-0.04878
-0.039024
-0.02439
-0.058536
-0.053658
-0.043902
-0.039024
-0.039024
-0.043902
-0.014634
-0.034146
-0.04878
-0.053658
-0.053658
-0.043902
-0.029268
-0.02439
-0.04878
-0.068292
-0.043902
-0.034146
-0.019512
-0.039024
-0.04878
-0.053658
-0.034146
-0.029268
0.004878
0.004878
0
-0.009756
0.009756
0
0.009756
0
-0.039024
-0.034146
-0.029268
-0.043902
-0.04878
-0.043902
-0.034146
-0.053658
-0.053658
-0.053658
-0.04878
-0.04878
-0.058536
-0.068292
-0.043902
-0.04878
-0.068292
-0.058536
-0.039024
-0.029268
-0.029268
-0.02439
0
0.034146
0.063414
0.063414
0.068292
-0.058536
-0.224388
-0.312192
-0.424386
-0.468288
-0.419508
-0.36585
-0.253656
-0.156096
-0.09756
-0.078048
-0.014634
0.014634
-0.014634
0
0.019512
0.029268
0.019512
0.009756
0.043902
0.043902
0.02439
0.029268
0.043902
0.053658
0.04878
0.053658
0.053658
0.058536
0.029268
0.043902
0.063414
0.068292
0.07317
0.068292
0.09756
0.087804
0.087804
0.087804
0.107316
0.126828
0.131706
0.112194
0.141462
0.156096
0.141462
0.156096
0.185364
0.209754
0.229266
0.239022
0.278046
0.278046
0.287802
0.287802
0.312192
0.331704
0.31707
0.31707
0.321948
0.331704
0.287802
0.26829
0.2439
0.248778
0.214632
0.190242
0.14634
0.126828
0.053658
0.058536
0.068292
0.043902
0.02439
0.019512
0.039024
0.019512
0.004878
0.004878
0
0.009756
-0.014634
-0.019512
-0.004878
-0.019512
-0.009756
-0.009756
0
0.009756
-0.009756
0.004878
0
0
-0.004878
0
0.009756
0.02439
-0.029268
-0.029268
0.004878
0.019512
0
0.004878
0.009756
0
-0.004878
-0.004878
-0.029268
-0.034146
-0.043902
-0.043902
-0.04878
-0.029268
-0.004878
0.009756
0.014634
0.004878
-0.019512
-0.029268
-0.043902
-0.063414
-0.07317
-0.034146
-0.004878
0.009756
-0.034146
-0.034146
-0.039024
-0.053658
-0.063414
-0.019512
-0.034146
-0.068292
-0.07317
-0.053658
-0.02439
-0.009756
-0.029268
-0.029268
-0.043902
-0.04878
-0.04878
-0.063414
-0.082926
-0.058536
-0.039024
-0.034146
-0.053658
-0.009756
-0.004878
-0.02439
-0.04878
-0.063414
-0.07317
-0.07317
-0.019512
0
-0.063414
-0.063414
-0.02439
0.014634
-0.039024
-0.053658
-0.04878
-0.039024
-0.034146
-0.043902
-0.053658
-0.019512
-0.004878
-0.039024
-0.034146
-0.034146
-0.029268
-0.014634
0.004878
0.009756
-0.014634
-0.02439
-0.029268
0.004878
-0.004878
0
0.009756
-0.019512
0.009756
0.019512
0
0.014634
-0.039024
-0.034146
-0.02439
-0.019512
-0.014634
-0.029268
-0.043902
-0.04878
-0.053658
-0.043902
-0.034146
-0.063414
-0.068292
-0.053658
-0.058536
-0.039024
-0.029268
-0.039024
-0.043902
-0.014634
-0.009756
-0.009756
0.04878
0.102438
0.009756
-0.063414
-0.239022
-0.429264
-0.551214
-0.575604
-0.551214
-0.468288
-0.336582
-0.26829
-0.141462
-0.053658
-0.009756
0.009756
0.034146
0.029268
0.004878
0.019512
0.034146
0.04878
0.058536
0.039024
0.034146
0.063414
0.078048
0.063414
0.053658
0.078048
0.082926
0.078048
0.102438
0.092682
0.107316
0.09756
0.087804
0.09756
0.102438
0.112194
0.117072
0.117072
0.112194
0.131706
0.165852
0.17073
0.165852
0.175608
0.21951
0.224388
0.2439
0.253656
0.26829
0.282924
0.302436
0.307314
0.31707
0.336582
0.34146
0.331704
0.31707
0.346338
0.336582
0.331704
0.346338
0.34146
0.287802
0.282924
0.263412
0.21951
0.165852
0.141462
0.12195
0.107316
0.043902
0.02439
0
-0.039024
-0.068292
-0.04878
0
-0.029268
-0.019512
0
0.02439
0.029268
0.02439
0.087804
0.07317
0.09756
0.175608
0.185364
0.248778
0.302436
0.224388
0.234144
0.263412
0.282924
0.273168
0.312192
0.395118
0.473166
0.507312
0.482922
0.497556
0.478044
0.448776
0.458532
0.478044
0.482922
0.399996
0.360972
0.19512
0.102438
0.092682
0.141462
0.229266
0.26829
0.209754
0.19512
0.034146
-0.014634
-0.029268
-0.034146
-0.034146
0.112194
0.156096
0.165852
0.19512
0.156096
0.053658
0.07317
0.112194
0.131706
0.004878
-0.058536
-0.082926
-0.136584
-0.214632
-0.151218
-0.053658
0.009756
0.043902
0.04878
0.082926
0.009756
-0.019512
-0.014634
-0.004878
-0.009756
0.014634
0.004878
-0.068292
-0.102438
-0.058536
-0.043902
-0.034146
-0.053658
-0.058536
-0.043902
-0.063414
-0.053658
-0.053658
-0.043902
-0.029268
-0.053658
-0.053658
-0.04878
-0.058536
-0.029268
-0.053658
-0.053658
-0.039024
-0.019512
-0.014634
-0.02439
-0.029268
-0.004878
-0.004878
0.019512
0.04878
0.019512
0.02439
0.02439
0.053658
0.039024
0.02439
0.029268
0.039024
0.02439
0.043902
0.043902
0.02439
0.019512
0.034146
0.034146
0.039024
0.014634
0.004878
0.004878
0.004878
-0.014634
-0.078048
-0.07317
-0.053658
-0.029268
-0.014634
-0.029268
-0.039024
-0.019512
-0.014634
-0.02439
-0.029268
-0.02439
-0.039024
-0.04878
-0.078048
-0.117072
-0.126828
-0.12195
-0.102438
-0.087804
-0.214632
-0.278046
-0.526824
-0.712188
-0.736578
-0.702432
-0.614628
-0.507312
-0.385362
-0.312192
-0.224388
-0.12195
-0.078048
-0.068292
-0.053658
-0.034146
-0.014634
-0.004878
0.034146
0.039024
0.02439
0.029268
0.034146
0.02439
0.019512
0.009756
0.02439
0.009756
0.019512
0.029268
0.043902
0.053658
0.02439
0.053658
0.087804
0.092682
0.087804
0.107316
0.131706
0.136584
0.14634
0.151218
0.190242
0.175608
0.185364
0.190242
0.204876
0.21951
0.214632
0.229266
0.253656
0.287802
0.297558
0.307314
0.321948
0.331704
0.336582
0.326826
0.336582
0.360972
0.336582
0.34146
0.346338
0.31707
0.278046
0.263412
0.2439
0.190242
0.165852
0.151218
0.112194
0.082926
0.063414
0.058536
0.034146
0.034146
0.029268
0.014634
0
0.004878
-0.02439
-0.039024
-0.004878
-0.009756
0.004878
0.004878
0
0.068292
0.126828
0.14634
0.156096
0.156096
0.209754
0.175608
0.107316
0.07317
0.063414
0.058536
0.034146
0.034146
0.019512
0.019512
0.014634
0.04878
0.058536
0.04878
0.07317
0.07317
0.087804
0.087804
0.092682
0.053658
0.039024
0.043902
0.034146
0.034146
0.009756
0.019512
0.029268
0.043902
0.058536
0.04878
0.02439
0.029268
0.029268
0.029268
0.034146
0.004878
-0.009756
-0.009756
0.019512
0.009756
-0.034146
-0.02439
-0.009756
0
-0.02439
-0.009756
-0.014634
-0.019512
-0.039024
-0.034146
-0.019512
-0.014634
-0.004878
-0.02439
-0.034146
-0.02439
-0.034146
-0.034146
-0.02439
-0.009756
-0.039024
-0.058536
-0.019512
-0.02439
-0.043902
-0.043902
-0.043902
-0.039024
-0.039024
-0.039024
-0.029268
-0.009756
-0.019512
-0.014634
0.019512
0.043902
0.029268
0.019512
0.034146
0.029268
0.029268
0.034146
0.043902
0.04878
0.009756
-0.004878
0.009756
0.014634
-0.029268
-0.043902
-0.053658
-0.039024
-0.068292
-0.078048
-0.053658
-0.053658
-0.068292
-0.07317
-0.07317
-0.058536
-0.053658
-0.043902
-0.034146
-0.014634
-0.034146
-0.034146
-0.019512
0
0.009756
-0.014634
-0.029268
-0.019512
-0.043902
-0.043902
-0.04878
-0.043902
-0.053658
-0.063414
-0.034146
-0.043902
-0.058536
-0.058536
-0.063414
-0.058536
-0.043902
-0.039024
-0.039024
-0.058536
-0.07317
-0.053658
-0.02439
-0.009756
0
0.004878
0.039024
0.068292
0.004878
-0.058536
-0.209754
-0.409752
-0.551214
-0.590238
-0.56097
-0.443898
-0.312192
-0.239022
-0.12195
-0.053658
-0.029268
-0.029268
-0.019512
0.014634
0.004878
0.009756
0.019512
0.019512
0.009756
0.014634
-0.004878
0.019512
0.014634
0.019512
0.02439
0.043902
0.058536
0.053658
0.082926
0.058536
0.043902
0.043902
0.063414
0.082926
0.087804
0.078048
0.092682
0.09756
0.09756
0.117072
0.141462
0.14634
0.117072
0.107316
0.17073
0.19512
0.214632
0.214632
0.229266
0.2439
0.253656
0.258534
0.31707
0.331704
0.297558
0.307314
0.351216
0.385362
0.356094
0.336582
0.346338
0.321948
0.273168
0.273168
0.278046
0.209754
0.185364
0.165852
0.12195
0.117072
0.092682
0.078048
0.058536
0.039024
0.014634
0.004878
0.004878
0.009756
0
-0.009756
-0.014634
-0.019512
-0.02439
-0.019512
-0.02439
0.004878
-0.019512
-0.014634
0
0.009756
-0.02439
-0.039024
0
-0.009756
-0.009756
0
0.014634
0.02439
-0.014634
-0.019512
-0.009756
-0.004878
-0.019512
-0.014634
0
0.009756
-0.02439
-0.029268
-0.02439
-0.004878
-0.014634
-0.019512
-0.02439
-0.009756
-0.034146
-0.034146
-0.009756
-0.009756
-0.034146
-0.034146
-0.029268
-0.034146
-0.019512
-0.019512
-0.014634
-0.029268
-0.053658
-0.043902
-0.02439
-0.019512
-0.029268
-0.034146
-0.034146
-0.009756
-0.019512
-0.039024
-0.053658
-0.039024
-0.034146
-0.034146
-0.019512
-0.029268
-0.043902
-0.039024
-0.02439
-0.019512
-0.034146
-0.034146
-0.019512
-0.014634
-0.019512
-0.029268
-0.039024
-0.029268
-0.02439
-0.034146
-0.029268
-0.02439
-0.034146
-0.034146
-0.02439
-0.014634
-0.039024
-0.04878
-0.02439
-0.019512
-0.039024
-0.034146
-0.02439
-0.029268
-0.034146
-0.039024
-0.014634
-0.014634
-0.034146
-0.039024
-0.043902
-0.019512
-0.034146
-0.043902
-0.029268
-0.039024
-0.043902
-0.034146
-0.02439
-0.039024
-0.039024
-0.019512
-0.014634
-0.039024
-0.058536
-0.04878
-0.029268
-0.019512
-0.043902
-0.07317
-0.039024
-0.014634
-0.02439
-0.009756
0.004878
-0.02439
-0.009756
-0.004878
-0.004878
0.014634
0.014634
0.009756
-0.009756
-0.039024
-0.063414
-0.078048
-0.087804
-0.063414
-0.053658
-0.034146
-0.014634
-0.107316
-0.141462
-0.12195
0
-0.019512
-0.082926
-0.063414
-0.004878
0.034146
-0.063414
-0.092682
-0.092682
-0.043902
-0.004878
0.004878
0.043902
0.078048
-0.029268
-0.082926
-0.26829
-0.424386
-0.551214
-0.541458
-0.517068
-0.424386
-0.273168
-0.19512
-0.131706
-0.014634
0.004878
0.004878
0.009756
0.02439
0.039024
-0.009756
0.039024
0.039024
0.04878
0.043902
0.043902
0.068292
0.078048
0.068292
0.09756
0.058536
0.082926
0.087804
0.092682
0.068292
0.087804
0.09756
0.131706
0.107316
0.09756
0.107316
0.136584
0.165852
0.175608
0.165852
0.199998
0.19512
0.190242
0.19512
0.199998
0.21951
0.248778
0.253656
0.307314
0.34146
0.346338
0.346338
0.36585
0.395118
0.41463
0.41463
0.419508
0.448776
0.41463
0.404874
0.395118
0.43902
0.443898
0.370728
0.331704
0.302436
0.258534
0.258534
0.234144
0.19512
0.165852
0.156096
0.136584
0.126828
0.12195
0.112194
0.087804
0.078048
0.107316
0.117072
0.102438
0.082926
0.087804
0.092682
0.09756
0.07317
0.063414
0.058536
0.107316
0.102438
0.058536
0.04878
0.039024
0.078048
0.087804
0.058536
0.043902
0.04878
0.082926
0.078048
0.068292
0.034146
0.004878
0.019512
0.082926
0.058536
0.014634
0.029268
0.043902
0.039024
0.034146
0.034146
0.053658
0.053658
0.029268
0.02439
0.019512
0.004878
-0.004878
0
0.029268
0.04878
0.019512
0.02439
0.039024
0.053658
0.029268
0.02439
0.009756
0
0.004878
0.019512
0.034146
-0.009756
-0.029268
0.053658
0.068292
0.02439
0.014634
0.02439
0.043902
0.043902
-0.02439
-0.053658
0.004878
0.07317
0.063414
0.04878
0.02439
0.009756
0.004878
0.02439
0.034146
0.029268
0.029268
0.029268
0.034146
0.004878
0.004878
0.034146
0.039024
0.034146
-0.009756
0
0.029268
0.043902
0.04878
0.009756
0.029268
0.043902
0.029268
0.004878
-0.019512
0.029268
0.04878
0.039024
0.034146
0.02439
0.014634
0.029268
0.043902
0.029268
0.02439
0.019512
0.058536
0.09756
0.068292
0.107316
0.185364
0.21951
0.136584
0.12195
0.131706
0.112194
0.136584
0.165852
0.209754
0.224388
-0.004878
-0.068292
-0.107316
-0.043902
-0.019512
-0.029268
-0.039024
-0.014634
0.004878
-0.029268
-0.04878
-0.039024
-0.053658
-0.043902
-0.029268
-0.019512
-0.029268
-0.039024
-0.043902
-0.068292
-0.092682
-0.053658
0.02439
0.058536
-0.019512
-0.043902
0.014634
0.029268
0.009756
0.019512
0.034146
0.04878
0
-0.043902
-0.214632
-0.356094
-0.429264
-0.41463
-0.36585
-0.273168
-0.175608
-0.136584
-0.07317
0
0.058536
0.07317
0.087804
0.053658
0.034146
0.034146
0.068292
0.087804
0.068292
0.07317
0.078048
0.063414
0.07317
0.082926
0.09756
0.112194
0.102438
0.092682
0.087804
0.112194
0.117072
0.117072
0.107316
0.117072
0.131706
0.136584
0.14634
0.141462
0.17073
0.175608
0.19512
0.204876
0.209754
0.199998
0.19512
0.248778
0.273168
0.278046
0.297558
0.29268
0.326826
0.331704
0.346338
0.36585
0.375606
0.380484
0.395118
0.404874
0.424386
0.41463
0.404874
0.41463
0.370728
0.351216
0.346338
0.370728
0.346338
0.331704
0.297558
0.258534
0.229266
0.21951
0.21951
0.175608
0.160974
0.156096
0.151218
0.165852
0.175608
0.165852
0.160974
0.112194
0.058536
0.02439
-0.034146
-0.102438
-0.141462
-0.14634
-0.063414
-0.04878
-0.029268
-0.034146
-0.063414
-0.160974
-0.278046
-0.31707
-0.199998
-0.224388
-0.102438
-0.043902
0.053658
0.092682
0.087804
0.092682
0.087804
0.04878
-0.039024
-0.102438
-0.229266
-0.287802
-0.09756
-0.014634
0.068292
0.117072
0.107316
0.087804
0.04878
0.004878
-0.02439
-0.029268
0.014634
0.053658
0.068292
0.068292
0.087804
0.102438
0.087804
0.087804
0.107316
0.131706
0.117072
0.112194
0.107316
0.117072
0.126828
0.126828
0.12195
0.117072
0.12195
0.136584
0.17073
0.185364
0.180486
0.180486
0.180486
0.209754
0.253656
0.273168
0.297558
0.312192
0.312192
0.302436
0.34146
0.36585
0.356094
0.34146
0.29268
0.234144
0.165852
0.12195
0.034146
-0.04878
-0.102438
-0.126828
-0.209754
-0.336582
-0.4878
-0.565848
-0.478044
-0.531702
-0.458532
-0.385362
-0.2439
-0.151218
-0.117072
-0.112194
-0.087804
-0.078048
-0.034146
-0.014634
0.029268
0.053658
0.063414
0.07317
0.087804
0.087804
0.087804
0.092682
0.112194
0.12195
0.102438
0.092682
0.087804
0.07317
0.039024
0.034146
0.034146
0.039024
0.004878
-0.004878
0
0.02439
-0.004878
0.004878
0.034146
0.058536
0.063414
0.068292
0.063414
0.141462
0.180486
0.190242
0.204876
0.014634
-0.185364
-0.278046
-0.31707
-0.321948
-0.307314
-0.263412
-0.17073
-0.09756
-0.063414
-0.04878
0.07317
0.175608
0.14634
0.126828
0.107316
0.112194
0.12195
0.131706
0.151218
0.112194
0.078048
0.09756
0.131706
0.165852
0.185364
0.156096
0.131706
0.136584
0.165852
0.180486
0.19512
0.175608
0.204876
0.214632
0.151218
0.126828
0.204876
0.214632
0.229266
0.209754
0.214632
0.21951
0.204876
0.180486
0.234144
0.26829
0.297558
0.278046
0.31707
0.336582
0.360972
0.370728
0.351216
0.356094
0.360972
0.34146
0.36585
0.385362
0.409752
0.36585
0.31707
0.31707
0.331704
0.34146
0.234144
0.273168
0.278046
0.21951
0.175608
0.165852
0.131706
0.102438
0.082926
0.131706
0.117072
0.087804
0.063414
0.082926
0.107316
0.112194
0.092682
0.087804
0.082926
0.078048
0.068292
0.068292
0.07317
0.07317
0.078048
0.068292
0.07317
0.068292
0.068292
0.068292
0.07317
0.078048
0.053658
0.043902
0.034146
0.029268
0.019512
0.009756
0.004878
0.02439
0.029268
0.02439
0.029268
0.02439
0.019512
0.014634
0.004878
-0.004878
-0.014634
-0.019512
-0.009756
0.009756
0.04878
0.053658
0.078048
0.102438
0.112194
0.117072
0.151218
0.185364
0.209754
0.224388
0.239022
0.2439
0.248778
0.2439
0.234144
0.21951
0.204876
0.185364
0.165852
0.185364
0.209754
0.21951
0.2439
0.258534
0.2439
0.229266
0.199998
0.185364
0.180486
0.185364
0.190242
0.175608
0.160974
0.160974
0.17073
0.180486
0.185364
0.190242
0.180486
0.17073
0.165852
0.165852
0.165852
0.160974
0.165852
0.165852
0.160974
0.151218
0.151218
0.151218
0.136584
0.107316
0.087804
0.09756
0.141462
0.141462
0.117072
0.102438
0.087804
0.082926
0.087804
0.092682
0.09756
0.082926
0.09756
0.102438
0.107316
0.117072
0.126828
0.112194
0.131706
0.17073
0.165852
0.151218
0.136584
0.12195
0.102438
0.087804
0.09756
0.09756
0.082926
0.07317
0.063414
0.053658
0.04878
0.043902
0.043902
0.053658
0.058536
0.053658
0.04878
0.043902
0.043902
0.04878
0.053658
0.078048
0.09756
0.102438
0.117072
0.131706
0.02439
-0.02439
-0.199998
-0.404874
-0.521946
-0.526824
-0.531702
-0.36585
-0.204876
-0.126828
-0.009756
0.063414
0.09756
0.102438
0.117072
0.126828
0.126828
0.126828
0.131706
0.141462
0.136584
0.141462
0.151218
0.151218
0.156096
0.156096
0.165852
0.175608
0.180486
0.185364
0.19512
0.209754
0.209754
0.209754
0.21951
0.229266
0.239022
0.248778
0.258534
0.26829
0.278046
0.282924
0.302436
0.31707
0.326826
0.336582
0.360972
0.375606
0.395118
0.409752
0.424386
0.448776
0.46341
0.478044
0.497556
0.507312
0.51219
0.521946
0.531702
0.521946
0.51219
0.502434
0.478044
0.448776
0.419508
0.399996
0.370728
0.326826
0.29268
0.273168
0.2439
0.209754
0.180486
0.165852
0.156096
0.136584
0.117072
0.107316
0.102438
0.107316
0.087804
0.082926
0.082926
0.082926
0.082926
0.082926
0.082926
0.087804
0.087804
0.092682
0.087804
0.092682
0.092682
0.092682
0.102438
0.102438
0.107316
0.107316
0.117072
0.112194
0.112194
0.107316
0.107316
0.12195
0.12195
0.12195
0.131706
0.136584
0.131706
0.131706
0.131706
0.131706
0.126828
0.126828
0.131706
0.126828
0.126828
0.126828
0.131706
0.136584
0.126828
0.12195
0.126828
0.131706
0.12195
0.126828
0.131706
0.141462
0.117072
0.112194
0.117072
0.107316
0.102438
0.107316
0.107316
0.092682
0.082926
0.07317
0.068292
0.053658
0.053658
0.053658
0.058536
0.04878
0.04878
0.04878
0.053658
0.053658
0.039024
0.043902
0.043902
0.04878
0.043902
0.039024
0.053658
0.053658
0.053658
0.04878
0.04878
0.053658
0.04878
0.04878
0.04878
0.053658
0.053658
0.04878
0.04878
0.053658
0.043902
0.04878
0.053658
0.053658
0.04878
0.053658
0.068292
0.087804
0.09756
0.09756
0.087804
0.09756
0.102438
0.09756
0.092682
0.078048
0.063414
0.068292
0.078048
0.082926
0.07317
0.082926
0.087804
0.09756
0.107316
0.112194
0.126828
0.112194
0.092682
0.102438
0.126828
0.141462
0.126828
0.117072
0.14634
0.151218
0.151218
0.17073
0.199998
0.214632
0.165852
0.12195
-0.04878
-0.273168
-0.395118
-0.409752
-0.419508
-0.253656
-0.12195
-0.058536
0.034146
0.082926
0.102438
0.112194
0.126828
0.131706
0.126828
0.12195
0.131706
0.136584
0.131706
0.131706
0.131706
0.136584
0.131706
0.131706
0.136584
0.141462
0.141462
0.14634
0.151218
0.156096
0.156096
0.156096
0.17073
0.175608
0.17073
0.175608
0.190242
0.199998
0.209754
0.209754
0.224388
0.253656
0.258534
0.263412
0.278046
0.302436
0.31707
0.326826
0.346338
0.370728
0.385362
0.395118
0.419508
0.43902
0.448776
0.453654
0.468288
0.473166
0.453654
0.448776
0.443898
0.419508
0.385362
0.370728
0.34146
0.31707
0.278046
0.258534
0.234144
0.209754
0.185364
0.17073
0.151218
0.141462
0.131706
0.126828
0.117072
0.107316
0.102438
0.09756
0.102438
0.09756
0.087804
0.087804
0.09756
0.102438
0.087804
0.087804
0.09756
0.107316
0.092682
0.087804
0.082926
0.092682
0.082926
0.078048
0.078048
0.07317
0.07317
0.068292
0.063414
0.068292
0.063414
0.058536
0.058536
0.058536
0.04878
0.04878
0.04878
0.053658
0.043902
0.039024
0.043902
0.04878
0.039024
0.034146
0.034146
0.043902
0.043902
0.039024
0.039024
0.043902
0.039024
0.034146
0.034146
0.034146
0.029268
0.029268
0.034146
0.034146
0.029268
0.029268
0.029268
0.034146
0.02439
0.019512
0.029268
0.039024
0.029268
0.02439
0.02439
0.029268
0.034146
0.02439
0.029268
0.034146
0.029268
0.029268
0.029268
0.029268
0.02439
0.02439
0.029268
0.034146
0.02439
0.02439
0.02439
0.029268
0.02439
0.019512
0.02439
0.039024
0.029268
0.02439
0.02439
0.039024
0.04878
0.053658
0.068292
0.082926
0.068292
0.068292
0.07317
0.078048
0.058536
0.053658
0.034146
0.029268
0.019512
0.019512
0.014634
0.019512
0.009756
0.004878
0.004878
0.014634
0
0
-0.004878
0.004878
0.004878
0
-0.004878
0.009756
0.029268
0.034146
0.043902
0.063414
0.09756
0.112194
0.117072
0.039024
-0.14634
-0.248778
-0.41463
-0.482922
-0.492678
-0.395118
-0.248778
-0.131706
-0.058536
-0.034146
0.009756
0.039024
0.04878
0.053658
0.053658
0.068292
0.07317
0.07317
0.078048
0.082926
0.082926
0.082926
0.092682
0.087804
0.092682
0.09756
0.102438
0.102438
0.09756
0.107316
0.12195
0.12195
0.117072
0.12195
0.131706
0.141462
0.141462
0.141462
0.151218
0.160974
0.17073
0.17073
0.180486
0.190242
0.204876
0.209754
0.224388
0.239022
0.253656
0.26829
0.282924
0.297558
0.312192
0.31707
0.34146
0.346338
0.346338
0.346338
0.346338
0.351216
0.321948
0.312192
0.29268
0.258534
0.214632
0.204876
0.175608
0.14634
0.12195
0.112194
0.087804
0.068292
0.058536
0.053658
0.04878
0.034146
0.02439
0.02439
0.029268
0.019512
0.019512
0.02439
0.029268
0.034146
0.019512
0.014634
0.034146
0.029268
0.02439
0.02439
0.02439
0.029268
0.02439
0.02439
0.02439
0.019512
0.019512
0.019512
0.019512
0.014634
0.009756
0.009756
0.014634
0.004878
-0.004878
0
0.004878
0.009756
0
-0.004878
0
-0.004878
-0.009756
-0.009756
-0.009756
-0.014634
-0.014634
-0.014634
-0.014634
-0.019512
-0.019512
-0.019512
-0.019512
-0.019512
-0.02439
-0.02439
-0.019512
-0.02439
-0.034146
-0.034146
-0.029268
-0.02439
-0.034146
-0.034146
-0.029268
-0.02439
-0.034146
-0.034146
-0.029268
-0.029268
-0.034146
-0.034146
-0.029268
-0.029268
-0.029268
-0.029268
-0.02439
-0.029268
-0.029268
-0.029268
-0.019512
-0.019512
-0.019512
-0.004878
0.019512
0.034146
0.009756
0.009756
0.019512
0.02439
0
-0.009756
-0.019512
-0.02439
-0.034146
-0.034146
-0.034146
-0.034146
-0.039024
-0.039024
-0.034146
-0.039024
-0.043902
-0.043902
-0.034146
-0.039024
-0.043902
-0.039024
-0.034146
-0.029268
-0.034146
-0.009756
0.009756
0.02439
0.068292
0.07317
0.082926
0.014634
-0.131706
-0.229266
-0.404874
-0.4878
-0.492678
-0.448776
-0.336582
-0.21951
-0.131706
-0.092682
-0.039024
0
0.004878
0.014634
0.02439
0.02439
0.029268
0.02439
0.039024
0.043902
0.039024
0.039024
0.043902
0.053658
0.058536
0.04878
0.058536
0.063414
0.068292
0.068292
0.07317
0.07317
0.082926
0.087804
0.092682
0.102438
0.092682
0.102438
0.112194
0.126828
0.126828
0.126828
0.156096
0.17073
0.175608
0.185364
0.204876
0.229266
0.239022
0.248778
0.263412
0.278046
0.29268
0.302436
0.31707
0.321948
0.326826
0.326826
0.331704
0.321948
0.302436
0.29268
0.26829
0.239022
0.204876
0.190242
0.165852
0.141462
0.107316
0.092682
0.07317
0.058536
0.039024
0.034146
0.019512
0.014634
0.009756
0.009756
0.009756
0.004878
0
0.004878
0.009756
0.004878
0
0.004878
0.009756
0.004878
0.004878
0.004878
0.014634
0.014634
0.004878
0.004878
0.009756
0.014634
0.009756
0.009756
0.004878
0.009756
0.004878
0.004878
0.004878
0
-0.004878
0
0
-0.004878
-0.009756
-0.009756
-0.009756
-0.004878
-0.014634
-0.014634
-0.009756
-0.014634
-0.019512
-0.019512
-0.02439
-0.014634
-0.019512
-0.02439
-0.02439
-0.02439
-0.019512
-0.019512
-0.019512
-0.019512
-0.02439
-0.02439
-0.019512
-0.029268
-0.029268
-0.029268
-0.019512
-0.019512
-0.029268
-0.029268
-0.02439
-0.02439
-0.034146
-0.034146
-0.029268
-0.02439
-0.029268
-0.029268
-0.029268
-0.029268
-0.029268
-0.029268
-0.02439
-0.019512
-0.009756
0
0
0.019512
0.019512
0.019512
0.014634
0.019512
0.004878
0
-0.004878
-0.02439
-0.029268
-0.034146
-0.039024
-0.039024
-0.043902
-0.04878
-0.04878
-0.043902
-0.043902
-0.043902
-0.043902
-0.053658
-0.053658
-0.04878
-0.043902
-0.043902
-0.043902
-0.029268
0
0.019512
0.043902
0.058536
0.02439
-0.063414
-0.2439
-0.351216
-0.521946
-0.604872
-0.619506
-0.570726
-0.424386
-0.258534
-0.131706
-0.09756
-0.039024
-0.009756
0.009756
0.019512
0.029268
0.029268
0.029268
0.034146
0.043902
0.043902
0.043902
0.04878
0.058536
0.058536
0.063414
0.063414
0.068292
0.07317
0.082926
0.082926
0.082926
0.092682
0.09756
0.102438
0.107316
0.112194
0.12195
0.131706
0.14634
0.151218
0.156096
0.165852
0.185364
0.199998
0.21951
0.229266
0.248778
0.273168
0.287802
0.297558
0.326826
0.351216
0.36585
0.375606
0.39024
0.399996
0.409752
0.41463
0.41463
0.395118
0.375606
0.36585
0.336582
0.287802
0.258534
0.2439
0.209754
0.175608
0.141462
0.126828
0.112194
0.082926
0.063414
0.053658
0.043902
0.034146
0.02439
0.02439
0.02439
0.019512
0.019512
0.019512
0.019512
0.014634
0.019512
0.019512
0.014634
0.009756
0.009756
0.009756
0.019512
0.019512
0.009756
0.009756
0.02439
0.019512
0.014634
0.019512
0.019512
0.019512
0.014634
0.019512
0.019512
0.014634
0.014634
0.014634
0.009756
0.009756
0.009756
0.009756
0.009756
0.004878
0
0.004878
0.004878
0
-0.009756
0
0
-0.004878
-0.014634
-0.009756
-0.004878
-0.009756
-0.009756
-0.009756
-0.004878
-0.004878
-0.009756
-0.009756
-0.009756
-0.009756
-0.009756
-0.004878
0
-0.014634
-0.014634
-0.009756
-0.004878
-0.014634
-0.019512
-0.014634
-0.004878
-0.004878
-0.014634
-0.014634
-0.009756
0
0
0
0.009756
0.009756
0.019512
0.029268
0.043902
0.029268
0.029268
0.034146
0.029268
0.014634
-0.004878
-0.004878
-0.009756
-0.019512
-0.02439
-0.02439
-0.019512
-0.029268
-0.034146
-0.034146
-0.029268
-0.019512
-0.034146
-0.034146
-0.029268
-0.02439
-0.029268
-0.02439
-0.014634
0
0.019512
0.034146
0.063414
0.078048
0.034146
-0.019512
-0.165852
-0.36585
-0.53658
-0.590238
-0.599994
-0.51219
-0.351216
-0.26829
-0.126828
-0.043902
0
0.014634
0.034146
0.043902
0.04878
0.04878
0.053658
0.058536
0.063414
0.068292
0.07317
0.068292
0.07317
0.082926
0.087804
0.087804
0.082926
0.092682
0.107316
0.107316
0.107316
0.112194
0.12195
0.126828
0.126828
0.131706
0.14634
0.156096
0.160974
0.165852
0.185364
0.190242
0.199998
0.209754
0.234144
0.2439
0.263412
0.278046
0.302436
0.31707
0.331704
0.346338
0.375606
0.385362
0.39024
0.399996
0.41463
0.419508
0.404874
0.399996
0.385362
0.360972
0.326826
0.312192
0.273168
0.239022
0.209754
0.190242
0.165852
0.136584
0.107316
0.102438
0.087804
0.068292
0.053658
0.053658
0.053658
0.04878
0.029268
0.029268
0.034146
0.039024
0.029268
0.029268
0.034146
0.034146
0.02439
0.029268
0.034146
0.029268
0.029268
0.029268
0.034146
0.034146
0.029268
0.034146
0.039024
0.029268
0.02439
0.029268
0.039024
0.034146
0.02439
0.02439
0.029268
0.034146
0.02439
0.02439
0.029268
0.02439
0.014634
0.014634
0.019512
0.019512
0.014634
0.014634
0.014634
0.009756
0.009756
0.009756
0.014634
0.004878
0
0.004878
0.009756
0.004878
-0.004878
0
0.009756
0.014634
0
0.02439
0.004878
0.004878
0
0
0.004878
0.004878
0
0
0.004878
0
0
0
0.004878
0.004878
-0.004878
-0.004878
0.004878
0
-0.009756
-0.009756
0
0.004878
-0.009756
-0.014634
0
0
-0.004878
-0.004878
0
0.004878
0.004878
0.004878
0.019512
0.02439
0.029268
0.039024
0.053658
0.043902
0.039024
0.039024
0.053658
0.029268
0.004878
0
-0.004878
0
-0.014634
-0.019512
-0.014634
-0.014634
-0.019512
-0.019512
-0.02439
-0.019512
-0.019512
-0.019512
-0.019512
-0.019512
-0.019512
-0.019512
-0.014634
-0.019512
-0.019512
-0.009756
0.02439
0.039024
0.04878
0.068292
0.087804
0.043902
-0.058536
-0.131706
-0.34146
-0.507312
-0.570726
-0.551214
-0.448776
-0.29268
-0.160974
-0.102438
-0.034146
0.009756
0.029268
0.034146
0.043902
0.04878
0.04878
0.053658
0.063414
0.068292
0.063414
0.068292
0.078048
0.082926
0.07317
0.07317
0.087804
0.09756
0.092682
0.092682
0.102438
0.107316
0.107316
0.112194
0.12195
0.126828
0.126828
0.131706
0.14634
0.151218
0.160974
0.165852
0.180486
0.19512
0.199998
0.209754
0.229266
0.248778
0.263412
0.26829
0.29268
0.31707
0.326826
0.331704
0.351216
0.370728
0.380484
0.385362
0.39024
0.385362
0.375606
0.360972
0.336582
0.312192
0.273168
0.258534
0.229266
0.19512
0.160974
0.151218
0.131706
0.107316
0.082926
0.07317
0.068292
0.063414
0.043902
0.043902
0.039024
0.043902
0.034146
0.029268
0.034146
0.029268
0.029268
0.029268
0.029268
0.02439
0.02439
0.02439
0.029268
0.02439
0.019512
0.02439
0.029268
0.034146
0.02439
0.019512
0.029268
0.034146
0.02439
0.02439
0.019512
0.029268
0.02439
0.019512
0.019512
0.02439
0.019512
0.019512
0.019512
0.014634
0.009756
0.009756
0.014634
0.009756
0
0.004878
0.004878
0.004878
-0.004878
-0.009756
0
0.004878
-0.004878
-0.004878
0
0
-0.004878
-0.009756
-0.009756
-0.004878
-0.009756
-0.009756
-0.004878
-0.004878
-0.004878
-0.004878
0
-0.004878
-0.014634
-0.014634
-0.009756
-0.004878
-0.014634
-0.014634
-0.009756
-0.004878
-0.009756
-0.014634
-0.014634
-0.004878
-0.014634
-0.014634
-0.014634
-0.009756
-0.009756
-0.014634
-0.014634
-0.009756
-0.014634
-0.014634
-0.009756
-0.009756
-0.014634
-0.014634
-0.014634
-0.009756
-0.014634
-0.019512
-0.009756
-0.009756
-0.014634
-0.014634
-0.014634
-0.009756
-0.014634
-0.019512
-0.014634
-0.009756
-0.009756
-0.009756
-0.009756
-0.009756
-0.009756
-0.009756
-0.004878
-0.014634
-0.014634
-0.014634
-0.009756
-0.004878
-0.014634
-0.014634
-0.009756
-0.004878
-0.014634
-0.014634
-0.014634
-0.009756
-0.004878
-0.014634
-0.009756
-0.009756
-0.004878
-0.009756
-0.014634
-0.014634
-0.009756
-0.009756
-0.009756
-0.009756
-0.009756
-0.009756
-0.009756
-0.004878
-0.014634
-0.014634
-0.009756
-0.004878
-0.014634
-0.014634
-0.009756
-0.004878
-0.009756
-0.009756
-0.014634
-0.009756
-0.009756
-0.009756
-0.004878
-0.009756
-0.009756
-0.004878
0.004878
0.02439
0.039024
0.039024
0.034146
0.029268
0.029268
0.029268
0.02439
0.014634
-0.014634
-0.014634
-0.009756
-0.014634
-0.019512
-0.02439
-0.029268
-0.02439
-0.02439
-0.029268
-0.029268
-0.029268
-0.029268
-0.02439
-0.019512
-0.02439
-0.029268
-0.02439
-0.019512
-0.014634
-0.019512
-0.009756
0.019512
0.039024
0.053658
0.058536
0.063414
0.009756
-0.102438
-0.185364
-0.409752
-0.517068
-0.546336
-0.502434
-0.385362
-0.239022
-0.12195
-0.078048
-0.02439
0.009756
0.02439
0.029268
0.039024
0.04878
0.043902
0.04878
0.058536
0.063414
0.063414
0.063414
0.068292
0.07317
0.07317
0.07317
0.078048
0.087804
0.092682
0.092682
0.09756
0.102438
0.107316
0.112194
0.117072
0.112194
0.12195
0.126828
0.136584
0.151218
0.151218
0.156096
0.175608
0.190242
0.19512
0.204876
0.224388
0.239022
0.258534
0.26829
0.282924
0.307314
0.321948
0.331704
0.346338
0.360972
0.370728
0.380484
0.380484
0.375606
0.370728
0.360972
0.34146
0.31707
0.282924
0.26829
0.239022
0.209754
0.17073
0.156096
0.136584
0.117072
0.092682
0.082926
0.07317
0.063414
0.04878
0.043902
0.039024
0.034146
0.034146
0.034146
0.034146
0.029268
0.029268
0.029268
0.034146
0.029268
0.02439
0.02439
0.034146
0.034146
0.02439
0.02439
0.029268
0.034146
0.029268
0.029268
0.029268
0.034146
0.034146
0.034146
0.029268
0.02439
0.02439
0.029268
0.02439
0.02439
0.019512
0.02439
0.02439
0.014634
0.004878
0.009756
0.019512
0.014634
0.004878
0.004878
0.004878
0.004878
0.004878
0.004878
0.004878
0.004878
0
0
0
0
0
0
0
-0.004878
-0.004878
-0.004878
-0.004878
-0.009756
-0.014634
-0.009756
0
-0.004878
-0.009756
-0.009756
-0.004878
0
-0.009756
-0.009756
-0.004878
-0.004878
-0.009756
-0.009756
-0.009756
-0.009756
-0.014634
-0.014634
-0.004878
-0.014634
-0.014634
-0.014634
-0.009756
-0.014634
-0.014634
-0.014634
-0.004878
-0.009756
-0.014634
-0.014634
-0.009756
-0.004878
-0.014634
-0.014634
-0.009756
-0.009756
-0.014634
-0.014634
-0.009756
-0.009756
-0.009756
-0.009756
-0.009756
-0.014634
-0.014634
-0.014634
-0.009756
-0.014634
-0.014634
-0.014634
-0.004878
-0.009756
-0.019512
-0.019512
-0.014634
-0.009756
-0.014634
-0.014634
-0.009756
-0.009756
-0.009756
-0.009756
-0.004878
-0.009756
-0.009756
-0.009756
-0.004878
-0.009756
-0.009756
-0.009756
0
0
-0.014634
-0.014634
0
-0.004878
-0.019512
-0.014634
-0.009756
-0.004878
-0.014634
-0.014634
-0.009756
-0.004878
-0.009756
-0.009756
-0.009756
-0.004878
-0.009756
-0.009756
-0.004878
-0.004878
-0.009756
-0.009756
-0.004878
-0.009756
-0.014634
-0.009756
0
-0.004878
-0.014634
-0.009756
0
0
0.004878
0.004878
0.019512
0.04878
0.043902
0.034146
0.029268
0.039024
0.02439
0.02439
0.019512
-0.004878
-0.009756
-0.009756
-0.009756
-0.019512
-0.02439
-0.02439
-0.019512
-0.02439
-0.034146
-0.029268
-0.019512
-0.014634
-0.02439
-0.029268
-0.019512
-0.019512
-0.019512
-0.019512
-0.019512
-0.009756
0.004878
0.014634
0.039024
0.04878
0.07317
0.068292
0.039024
-0.063414
-0.253656
-0.360972
-0.4878
-0.531702
-0.468288
-0.395118
-0.2439
-0.126828
-0.058536
-0.034146
0.004878
0.029268
0.034146
0.034146
0.043902
0.04878
0.04878
0.053658
0.058536
0.063414
0.063414
0.063414
0.07317
0.078048
0.07317
0.07317
0.087804
0.087804
0.082926
0.087804
0.09756
0.102438
0.102438
0.09756
0.117072
0.12195
0.131706
0.131706
0.136584
0.14634
0.156096
0.160974
0.175608
0.190242
0.199998
0.209754
0.229266
0.2439
0.258534
0.273168
0.29268
0.312192
0.31707
0.331704
0.346338
0.360972
0.36585
0.356094
0.36585
0.36585
0.34146
0.326826
0.302436
0.273168
0.239022
0.224388
0.199998
0.160974
0.131706
0.12195
0.102438
0.082926
0.063414
0.058536
0.04878
0.039024
0.019512
0.019512
0.02439
0.02439
0.009756
0.009756
0.014634
0.019512
0.009756
0.009756
0.009756
0.014634
0.009756
0.009756
0.009756
0.009756
0.009756
0.009756
0.014634
0.014634
0.009756
0.009756
0.019512
0.014634
0.004878
0.004878
0.009756
0.014634
0.004878
0
0.004878
0.009756
0
-0.004878
-0.009756
0
-0.009756
-0.009756
-0.009756
-0.009756
-0.014634
-0.014634
-0.014634
-0.019512
-0.019512
-0.019512
-0.014634
-0.014634
-0.02439
-0.02439
-0.019512
-0.019512
-0.029268
-0.034146
-0.02439
-0.014634
-0.029268
-0.034146
-0.034146
-0.02439
-0.029268
-0.029268
-0.029268
-0.02439
-0.029268
-0.029268
-0.029268
-0.029268
-0.034146
-0.034146
-0.029268
-0.029268
-0.039024
-0.039024
-0.029268
-0.02439
-0.039024
-0.043902
-0.029268
-0.029268
-0.034146
-0.039024
-0.039024
-0.029268
-0.02439
-0.034146
-0.034146
-0.034146
-0.034146
-0.034146
-0.034146
-0.034146
-0.034146
-0.034146
-0.029268
-0.029268
-0.034146
-0.034146
-0.029268
-0.02439
-0.034146
-0.039024
-0.029268
-0.019512
-0.029268
-0.034146
-0.034146
-0.019512
-0.02439
-0.02439
-0.02439
-0.02439
-0.02439
-0.02439
-0.02439
-0.029268
-0.029268
-0.029268
-0.02439
-0.019512
-0.029268
-0.029268
-0.019512
-0.019512
-0.029268
-0.029268
-0.02439
-0.014634
-0.029268
-0.029268
-0.029268
-0.019512
-0.019512
-0.02439
-0.02439
-0.019512
-0.014634
-0.014634
0
0.019512
0.029268
0.029268
0.019512
0.02439
0.019512
0.014634
0.009756
-0.004878
-0.019512
-0.02439
-0.019512
-0.02439
-0.034146
-0.039024
-0.039024
-0.029268
-0.034146
-0.039024
-0.039024
-0.029268
-0.034146
-0.034146
-0.034146
-0.034146
-0.029268
-0.029268
-0.02439
-0.014634
0.004878
0.009756
0.02439
0.053658
0.078048
0.068292
0.043902
-0.07317
-0.297558
-0.385362
-0.492678
-0.517068
-0.429264
-0.375606
-0.229266
-0.12195
-0.053658
-0.034146
0
0.02439
0.029268
0.034146
0.039024
0.043902
0.04878
0.04878
0.053658
0.063414
0.058536
0.058536
0.068292
0.078048
0.07317
0.07317
0.082926
0.087804
0.087804
0.092682
0.09756
0.107316
0.112194
0.112194
0.117072
0.126828
0.131706
0.136584
0.14634
0.156096
0.160974
0.165852
0.185364
0.199998
0.214632
0.21951
0.239022
0.263412
0.278046
0.282924
0.307314
0.331704
0.34146
0.351216
0.360972
0.375606
0.380484
0.375606
0.370728
0.356094
0.336582
0.326826
0.302436
0.273168
0.234144
0.21951
0.190242
0.160974
0.126828
0.112194
0.09756
0.082926
0.058536
0.053658
0.043902
0.043902
0.029268
0.02439
0.019512
0.02439
0.019512
0.019512
0.019512
0.014634
0.019512
0.019512
0.019512
0.02439
0.019512
0.019512
0.02439
0.02439
0.02439
0.019512
0.02439
0.029268
0.029268
0.02439
0.019512
0.02439
0.02439
0.019512
0.014634
0.019512
0.019512
0.019512
0.014634
0.014634
0.014634
0.014634
0.014634
0.009756
0.004878
0.004878
0.004878
0.009756
0
0
0
0.004878
-0.004878
-0.004878
0
0
0
-0.004878
-0.009756
-0.004878
-0.004878
-0.004878
-0.004878
-0.004878
-0.004878
-0.004878
-0.004878
-0.009756
-0.009756
-0.009756
-0.004878
-0.009756
-0.014634
-0.014634
-0.004878
0
-0.009756
-0.014634
-0.014634
-0.009756
-0.014634
-0.014634
-0.014634
-0.009756
-0.009756
-0.014634
-0.014634
-0.014634
-0.009756
-0.009756
-0.009756
-0.014634
-0.014634
-0.014634
-0.014634
-0.009756
-0.014634
-0.014634
-0.009756
-0.009756
-0.014634
-0.014634
-0.014634
-0.009756
-0.009756
-0.009756
-0.014634
-0.009756
-0.009756
-0.014634
-0.014634
-0.009756
-0.014634
-0.009756
-0.014634
-0.014634
-0.014634
-0.014634
-0.009756
-0.009756
-0.014634
-0.014634
-0.009756
-0.009756
-0.014634
-0.014634
-0.009756
-0.004878
-0.014634
-0.014634
-0.009756
-0.009756
-0.009756
-0.009756
-0.009756
-0.009756
-0.009756
-0.009756
-0.009756
-0.014634
-0.014634
-0.009756
-0.004878
-0.009756
-0.014634
-0.014634
-0.004878
-0.004878
-0.014634
-0.014634
-0.009756
-0.004878
-0.009756
-0.009756
-0.004878
0
0.004878
0.009756
0.029268
0.043902
0.034146
0.029268
0.029268
0.029268
0.02439
0.02439
0.004878
-0.009756
-0.014634
-0.014634
-0.009756
-0.014634
-0.02439
-0.02439
-0.019512
-0.019512
-0.02439
-0.029268
-0.02439
-0.019512
-0.019512
-0.019512
-0.02439
-0.019512
-0.019512
-0.019512
0.004878
0.019512
0.039024
0.053658
0.068292
0.053658
0
-0.039024
-0.204876
-0.424386
-0.531702
-0.541458
-0.546336
-0.356094
-0.21951
-0.156096
-0.063414
-0.014634
0.019512
0.02439
0.039024
0.043902
0.04878
0.053658
0.058536
0.058536
0.063414
0.068292
0.07317
0.078048
0.07317
0.078048
0.087804
0.092682
0.092682
0.092682
0.102438
0.107316
0.107316
0.102438
0.112194
0.12195
0.126828
0.126828
0.136584
0.14634
0.156096
0.160974
0.17073
0.180486
0.19512
0.204876
0.21951
0.234144
0.248778
0.258534
0.287802
0.307314
0.321948
0.331704
0.356094
0.375606
0.380484
0.380484
0.395118
0.404874
0.395118
0.385362
0.375606
0.356094
0.321948
0.307314
0.273168
0.2439
0.209754
0.19512
0.17073
0.136584
0.112194
0.102438
0.087804
0.07317
0.04878
0.04878
0.043902
0.043902
0.034146
0.029268
0.029268
0.029268
0.02439
0.02439
0.019512
0.02439
0.02439
0.02439
0.02439
0.02439
0.02439
0.02439
0.029268
0.034146
0.02439
0.02439
0.034146
0.029268
0.02439
0.02439
0.029268
0.039024
0.029268
0.02439
0.02439
0.029268
0.02439
0.02439
0.019512
0.02439
0.019512
0.019512
0.014634
0.014634
0.009756
0.009756
0.009756
0.014634
0.004878
0.004878
0.009756
0.009756
0
0.004878
0.004878
0.009756
0.004878
0
0.004878
0.004878
0.004878
0
-0.004878
0
0
-0.004878
0
0
-0.004878
0
0
0
-0.004878
-0.004878
0
0.004878
-0.004878
-0.004878
0
0.004878
-0.009756
-0.014634
-0.004878
0
-0.004878
-0.009756
-0.009756
0
0
-0.004878
-0.004878
-0.004878
-0.004878
-0.004878
-0.004878
-0.009756
-0.009756
-0.009756
0
0
-0.009756
-0.009756
0
0.004878
-0.009756
-0.014634
-0.004878
0
-0.004878
-0.009756
-0.009756
0
-0.009756
-0.009756
-0.004878
-0.004878
-0.004878
-0.004878
-0.004878
-0.004878
-0.004878
-0.004878
0
0
-0.009756
-0.009756
-0.004878
0
-0.009756
-0.009756
0
0.004878
-0.004878
-0.009756
-0.009756
0
-0.004878
-0.004878
0
0
0
0
-0.004878
0
-0.004878
-0.004878
0
0
-0.009756
-0.004878
0.004878
0.004878
-0.004878
-0.009756
-0.004878
0.004878
-0.004878
-0.004878
0
0.004878
0.004878
0
0
0.004878
0.004878
0.004878
0.019512
0.034146
0.04878
0.04878
0.039024
0.04878
0.039024
0.034146
0.034146
0.019512
0
-0.004878
0
0.004878
-0.009756
-0.019512
-0.02439
-0.009756
-0.014634
-0.019512
-0.019512
-0.014634
-0.014634
-0.014634
-0.014634
-0.009756
-0.014634
-0.014634
-0.009756
0.009756
0.019512
0.02439
0.04878
0.07317
0.078048
0.063414
0
-0.160974
-0.385362
-0.443898
-0.51219
-0.517068
-0.346338
-0.273168
-0.14634
-0.053658
-0.009756
0.004878
0.034146
0.043902
0.04878
0.053658
0.063414
0.07317
0.068292
0.068292
0.078048
0.087804
0.087804
0.07317
0.087804
0.09756
0.09756
0.092682
0.092682
0.107316
0.112194
0.107316
0.112194
0.126828
0.126828
0.126828
0.136584
0.14634
0.151218
0.151218
0.165852
0.180486
0.185364
0.190242
0.204876
0.224388
0.234144
0.239022
0.263412
0.297558
0.307314
0.312192
0.331704
0.356094
0.370728
0.375606
0.385362
0.399996
0.399996
0.399996
0.395118
0.380484
0.356094
0.346338
0.31707
0.287802
0.248778
0.234144
0.204876
0.175608
0.14634
0.126828
0.112194
0.102438
0.078048
0.068292
0.058536
0.053658
0.04878
0.043902
0.034146
0.043902
0.039024
0.034146
0.034146
0.034146
0.039024
0.039024
0.039024
0.039024
0.039024
0.039024
0.043902
0.043902
0.039024
0.039024
0.043902
0.04878
0.039024
0.039024
0.039024
0.039024
0.034146
0.034146
0.029268
0.039024
0.039024
0.034146
0.029268
0.029268
0.029268
0.029268
0.02439
0.02439
0.019512
0.019512
0.019512
0.019512
0.014634
0.014634
0.019512
0.019512
0.014634
0.009756
0.009756
0.014634
0.009756
0.004878
0.004878
0.014634
0.009756
0.009756
0.009756
0.009756
0.009756
0.009756
0.009756
0
0.004878
0.004878
0.004878
0.004878
0.004878
0
0.004878
0.004878
0.004878
0.004878
0
0.004878
0.004878
0
0
0.004878
0.004878
0.004878
0
0
-0.004878
0.004878
0.004878
0
-0.004878
-0.004878
0
0.004878
0
-0.004878
0.004878
0.004878
0
0
-0.004878
0
-0.004878
-0.004878
-0.004878
0
0
0
-0.004878
-0.004878
-0.004878
-0.004878
0
-0.004878
-0.004878
0
0
0
-0.009756
-0.009756
0
0
-0.004878
-0.009756
-0.009756
0
0
-0.004878
0
0
0
0
-0.004878
-0.004878
-0.004878
-0.004878
-0.004878
-0.009756
-0.009756
-0.009756
-0.004878
0
0
-0.009756
0
-0.004878
-0.014634
-0.014634
-0.009756
-0.004878
-0.009756
-0.009756
-0.004878
0
0.004878
0.019512
0.039024
0.04878
0.029268
0.02439
0.029268
0.034146
0.019512
0.009756
0
-0.009756
-0.014634
-0.014634
-0.02439
-0.02439
-0.02439
-0.029268
-0.029268
-0.02439
-0.029268
-0.034146
-0.034146
-0.02439
-0.02439
-0.029268
-0.029268
-0.029268
-0.014634
0
0.009756
0.019512
0.04878
0.07317
0.102438
0.107316
-0.034146
-0.112194
-0.307314
-0.429264
-0.473166
-0.448776
-0.36585
-0.248778
-0.14634
-0.107316
-0.04878
0
0.019512
0.02439
0.02439
0.029268
0.034146
0.034146
0.039024
0.039024
0.034146
0.039024
0.043902
0.04878
0.039024
0.043902
0.058536
0.07317
0.07317
0.07317
0.082926
0.087804
0.082926
0.078048
0.078048
0.07317
0.07317
0.078048
0.087804
0.102438
0.112194
0.112194
0.131706
0.14634
0.175608
0.19512
0.234144
0.26829
0.282924
0.287802
0.29268
0.29268
0.29268
0.307314
0.331704
0.336582
0.321948
0.31707
0.312192
0.31707
0.307314
0.302436
0.287802
0.26829
0.239022
0.229266
0.199998
0.165852
0.141462
0.126828
0.107316
0.087804
0.063414
0.058536
0.053658
0.043902
0.014634
0.009756
0.009756
0.009756
0.009756
0.014634
0.02439
0.019512
0.004878
0.004878
0.004878
0.009756
0.009756
0.009756
0.019512
0.02439
0.019512
0.019512
0.014634
0.02439
0.014634
0.014634
0.029268
0.029268
0.014634
0.014634
0.019512
0.02439
0.02439
0.019512
0.019512
0.02439
0.004878
0.004878
0.014634
0.019512
0.009756
0.004878
0.014634
0.014634
0.014634
0.019512
0.02439
0.029268
0.019512
0.009756
0.009756
0
-0.004878
0
0.009756
0.014634
0.004878
0
0
0
-0.004878
-0.014634
-0.029268
-0.029268
-0.019512
-0.019512
-0.009756
-0.009756
-0.019512
-0.019512
-0.02439
0.004878
0.004878
-0.019512
-0.019512
0
-0.009756
-0.014634
-0.019512
0
-0.009756
-0.019512
-0.019512
-0.014634
-0.009756
-0.009756
-0.004878
0
-0.02439
-0.034146
-0.034146
-0.034146
-0.039024
-0.043902
-0.053658
-0.063414
-0.068292
-0.058536
-0.053658
-0.063414
-0.09756
-0.09756
-0.087804
-0.082926
-0.087804
-0.092682
-0.09756
-0.082926
-0.092682
-0.087804
-0.07317
-0.058536
-0.058536
-0.092682
-0.087804
-0.063414
-0.063414
-0.068292
-0.07317
-0.058536
-0.039024
-0.029268
0
0.004878
0.004878
0.019512
0.039024
0.053658
0
-0.019512
0.009756
0.009756
-0.004878
-0.004878
0
0.009756
0.004878
0.004878
0.004878
0.004878
0
0
-0.009756
-0.019512
-0.019512
-0.014634
-0.009756
-0.014634
-0.014634
0
0.034146
0.04878
0.053658
0.058536
0.053658
0.02439
-0.12195
-0.239022
-0.434142
-0.526824
-0.546336
-0.492678
-0.356094
-0.21951
-0.102438
-0.078048
-0.034146
0.009756
0.034146
0.039024
0.034146
0.039024
0.053658
0.04878
0.04878
0.053658
0.043902
0.039024
0.04878
0.078048
0.087804
0.087804
0.082926
0.107316
0.107316
0.082926
0.087804
0.102438
0.12195
0.117072
0.112194
0.112194
0.117072
0.12195
0.131706
0.141462
0.156096
0.156096
0.165852
0.185364
0.19512
0.204876
0.21951
0.239022
0.278046
0.282924
0.302436
0.331704
0.346338
0.356094
0.385362
0.395118
0.404874
0.409752
0.41463
0.399996
0.380484
0.370728
0.336582
0.31707
0.278046
0.26829
0.248778
0.21951
0.190242
0.175608
0.160974
0.136584
0.112194
0.09756
0.07317
0.068292
0.063414
0.058536
0.053658
0.053658
0.039024
0.034146
0.029268
0.029268
0.039024
0.02439
0.029268
0.039024
0.029268
0.029268
0.034146
0.02439
0.02439
0.039024
0.04878
0.053658
0.043902
0.043902
0.039024
0.053658
0.063414
0.043902
0.043902
0.034146
0.039024
0.034146
0.034146
0.034146
0.043902
0.043902
0.039024
0.034146
0.029268
0.02439
0.02439
0.019512
0.009756
0.004878
0.014634
0.004878
-0.009756
-0.009756
-0.004878
0
0.004878
0.004878
0
-0.014634
-0.058536
-0.063414
-0.078048
-0.078048
-0.07317
-0.07317
-0.07317
-0.068292
-0.053658
-0.043902
-0.019512
-0.009756
0
0.009756
0.009756
0.009756
0
0
0.004878
0.004878
0.004878
0
0.004878
0.009756
0.004878
0.004878
0.004878
0
-0.004878
0.004878
-0.004878
-0.004878
-0.009756
-0.009756
-0.009756
-0.004878
-0.014634
-0.014634
-0.014634
-0.014634
-0.014634
-0.014634
-0.014634
-0.009756
-0.004878
-0.014634
-0.009756
0
0.009756
0.019512
0.039024
0.04878
0.034146
0.039024
0.039024
0.029268
0.019512
0.009756
0.004878
0
-0.009756
-0.009756
-0.009756
-0.009756
-0.014634
-0.019512
-0.019512
-0.014634
-0.019512
-0.019512
-0.019512
-0.014634
-0.014634
-0.019512
-0.019512
0
0.019512
0.029268
0.04878
0.07317
0.04878
0.02439
-0.058536
-0.229266
-0.434142
-0.521946
-0.580482
-0.546336
-0.404874
-0.326826
-0.180486
-0.078048
-0.019512
0
0.029268
0.043902
0.04878
0.04878
0.053658
0.058536
0.063414
0.068292
0.078048
0.078048
0.078048
0.082926
0.092682
0.092682
0.092682
0.09756
0.102438
0.112194
0.112194
0.117072
0.126828
0.131706
0.136584
0.136584
0.141462
0.160974
0.165852
0.17073
0.175608
0.190242
0.204876
0.214632
0.229266
0.2439
0.258534
0.26829
0.29268
0.312192
0.331704
0.34146
0.36585
0.385362
0.395118
0.404874
0.419508
0.424386
0.419508
0.419508
0.409752
0.395118
0.36585
0.346338
0.312192
0.278046
0.239022
0.224388
0.190242
0.160974
0.131706
0.12195
0.102438
0.078048
0.063414
0.058536
0.053658
0.04878
0.034146
0.029268
0.029268
0.034146
0.02439
0.02439
0.02439
0.02439
0.02439
0.02439
0.02439
0.02439
0.02439
0.02439
0.029268
0.02439
0.02439
0.029268
0.034146
0.039024
0.029268
0.029268
0.034146
0.039024
0.029268
0.029268
0.034146
0.039024
0.029268
0.02439
0.029268
0.029268
0.029268
0.02439
0.02439
0.02439
0.02439
0.019512
0.019512
0.019512
0.014634
0.014634
0.014634
0.009756
0.009756
0.009756
0.019512
0.014634
0.009756
0.004878
0.004878
0.014634
0.004878
0.004878
0.009756
0.009756
0.004878
0.004878
0.004878
0.004878
0.009756
0.004878
0.009756
0.004878
0.004878
0.004878
0.009756
0.004878
0
0
0.009756
0.004878
0.004878
0.004878
0
0.009756
0
0
0.004878
0.004878
0.004878
0.004878
0.004878
0.009756
0.004878
0.004878
0.009756
0.004878
0.009756
0.009756
0.019512
0.02439
0.039024
0.053658
0.068292
0.053658
0.043902
0.043902
0.04878
0.043902
0.02439
0.009756
0.004878
0.009756
0
-0.004878
-0.009756
-0.004878
-0.009756
-0.009756
-0.009756
-0.009756
-0.009756
-0.009756
-0.004878
-0.009756
-0.009756
-0.004878
0
0.02439
0.02439
0.034146
0.063414
0.082926
0.058536
0.043902
-0.053658
-0.248778
-0.46341
-0.51219
-0.556092
-0.478044
-0.326826
-0.2439
-0.112194
-0.034146
0.009756
0.02439
0.04878
0.058536
0.053658
0.063414
0.078048
0.078048
0.07317
0.07317
0.087804
0.09756
0.087804
0.087804
0.09756
0.102438
0.102438
0.102438
0.107316
0.112194
0.117072
0.117072
0.126828
0.131706
0.131706
0.136584
0.14634
0.156096
0.160974
0.165852
0.180486
0.190242
0.199998
0.204876
0.224388
0.248778
0.253656
0.248778
0.29268
0.312192
0.326826
0.336582
0.356094
0.375606
0.39024
0.395118
0.409752
0.41463
0.409752
0.404874
0.395118
0.375606
0.34146
0.326826
0.302436
0.263412
0.21951
0.204876
0.180486
0.151218
0.117072
0.102438
0.09756
0.082926
0.063414
0.058536
0.04878
0.04878
0.043902
0.039024
0.034146
0.039024
0.029268
0.029268
0.029268
0.034146
0.029268
0.029268
0.034146
0.034146
0.029268
0.029268
0.034146
0.039024
0.029268
0.02439
0.034146
0.043902
0.034146
0.034146
0.034146
0.034146
0.039024
0.034146
0.034146
0.034146
0.029268
0.029268
0.029268
0.02439
0.02439
0.019512
0.029268
0.029268
0.014634
0.019512
0.02439
0.02439
0.014634
0.009756
0.014634
0.02439
0.009756
0.009756
0.009756
0.014634
0.009756
0.009756
0.009756
0.009756
0.009756
0.009756
0.009756
0.009756
0.004878
0.004878
0.009756
0.009756
0
0
0.004878
0.014634
0.004878
0
0.004878
0.009756
0.004878
0
-0.009756
0.004878
0.004878
0
0
0.004878
0.004878
0.004878
0
0.004878
0
-0.004878
0.004878
0.004878
0
0
0.004878
0.004878
-0.004878
-0.009756
0.004878
0.009756
0
0
-0.004878
0.019512
0.029268
0.039024
0.053658
0.043902
0.043902
0.043902
0.043902
0.04878
0.019512
0.009756
0.004878
0.004878
-0.004878
-0.009756
-0.009756
-0.004878
-0.019512
-0.02439
-0.014634
-0.009756
-0.014634
-0.019512
-0.02439
-0.014634
-0.009756
-0.019512
-0.014634
-0.004878
0.014634
0.019512
0.029268
0.053658
0.068292
0.068292
0.063414
-0.014634
-0.199998
-0.312192
-0.473166
-0.53658
-0.546336
-0.43902
-0.263412
-0.126828
-0.053658
-0.034146
0.004878
0.039024
0.04878
0.043902
0.053658
0.058536
0.063414
0.063414
0.063414
0.068292
0.07317
0.07317
0.082926
0.087804
0.082926
0.087804
0.092682
0.102438
0.09756
0.092682
0.107316
0.12195
0.117072
0.117072
0.12195
0.136584
0.141462
0.141462
0.141462
0.165852
0.175608
0.180486
0.190242
0.204876
0.21951
0.229266
0.248778
0.26829
0.282924
0.29268
0.312192
0.336582
0.351216
0.356094
0.375606
0.39024
0.395118
0.39024
0.385362
0.375606
0.356094
0.34146
0.307314
0.287802
0.248778
0.229266
0.199998
0.17073
0.141462
0.131706
0.107316
0.092682
0.07317
0.063414
0.058536
0.04878
0.039024
0.034146
0.034146
0.034146
0.02439
0.02439
0.019512
0.029268
0.034146
0.02439
0.02439
0.034146
0.034146
0.029268
0.02439
0.029268
0.029268
0.029268
0.034146
0.034146
0.034146
0.029268
0.029268
0.039024
0.029268
0.029268
0.029268
0.034146
0.02439
0.02439
0.019512
0.029268
0.034146
0.019512
0.014634
0.019512
0.019512
0.014634
0.009756
0.019512
0.009756
0.009756
0.009756
0.009756
0.004878
0.004878
0.004878
0.009756
0.004878
0
0.004878
0.009756
0
0
-0.004878
0.004878
0.004878
0
-0.009756
0
0.004878
0
-0.004878
0
0
-0.004878
-0.004878
-0.004878
-0.009756
-0.009756
0
0
-0.009756
-0.009756
-0.004878
0
-0.004878
-0.009756
-0.009756
0
0
-0.004878
-0.014634
-0.004878
-0.004878
-0.009756
-0.014634
-0.014634
-0.009756
-0.009756
-0.009756
-0.009756
-0.009756
-0.009756
-0.009756
-0.004878
-0.014634
-0.019512
-0.009756
-0.004878
-0.009756
-0.009756
-0.009756
0
0
-0.004878
0.004878
0.039024
0.039024
0.029268
0.02439
0.034146
0.029268
0.029268
0.014634
-0.004878
-0.014634
-0.014634
-0.019512
-0.019512
-0.014634
-0.029268
-0.029268
-0.02439
-0.034146
-0.034146
-0.034146
-0.029268
-0.034146
-0.034146
-0.034146
-0.02439
-0.02439
-0.02439
-0.019512
-0.004878
0.009756
0.014634
0.02439
0.07317
0.07317
0.063414
0
-0.156096
-0.356094
-0.448776
-0.526824
-0.497556
-0.380484
-0.312192
-0.185364
-0.09756
-0.043902
-0.02439
0.009756
0.02439
0.029268
0.029268
0.034146
0.043902
0.04878
0.04878
0.04878
0.053658
0.058536
0.058536
0.063414
0.068292
0.068292
0.068292
0.078048
0.078048
0.078048
0.082926
0.087804
0.092682
0.09756
0.092682
0.102438
0.117072
0.12195
0.126828
0.126828
0.136584
0.151218
0.156096
0.17073
0.185364
0.19512
0.199998
0.21951
0.239022
0.258534
0.26829
0.287802
0.307314
0.31707
0.31707
0.331704
0.34146
0.346338
0.34146
0.331704
0.326826
0.302436
0.282924
0.248778
0.21951
0.190242
0.175608
0.141462
0.112194
0.092682
0.082926
0.068292
0.053658
0.034146
0.029268
0.029268
0.02439
0.014634
0.009756
0.009756
0.014634
0.009756
0.004878
0.009756
0.009756
0.009756
0.009756
0.009756
0.009756
0.009756
0.014634
0.009756
0.009756
0.009756
0.009756
0.014634
0.029268
0.043902
0.009756
0.014634
0.009756
0.004878
0.004878
0
0.009756
0
-0.004878
-0.004878
0
-0.004878
-0.009756
-0.009756
-0.004878
-0.009756
-0.009756
-0.009756
-0.014634
-0.014634
-0.014634
-0.014634
-0.019512
-0.02439
-0.02439
-0.014634
-0.019512
-0.02439
-0.02439
-0.019512
-0.019512
-0.019512
-0.02439
-0.029268
-0.019512
-0.02439
-0.029268
-0.029268
-0.029268
-0.029268
-0.029268
-0.029268
-0.034146
-0.029268
-0.029268
-0.029268
-0.034146
-0.034146
-0.034146
-0.029268
-0.029268
-0.034146
-0.034146
-0.034146
-0.029268
-0.034146
-0.034146
-0.034146
-0.029268
-0.034146
-0.034146
-0.034146
-0.034146
-0.034146
-0.034146
-0.034146
-0.034146
-0.029268
-0.029268
-0.029268
-0.034146
-0.034146
-0.034146
-0.029268
-0.029268
-0.034146
-0.034146
-0.029268
-0.019512
-0.019512
-0.034146
-0.02439
-0.014634
-0.004878
0.004878
0.019512
0.019512
0.014634
0.014634
0.014634
0.004878
-0.004878
-0.014634
-0.02439
-0.034146
-0.039024
-0.039024
-0.034146
-0.039024
-0.053658
-0.053658
-0.043902
-0.039024
-0.04878
-0.053658
-0.043902
-0.043902
-0.043902
-0.043902
-0.039024
-0.039024
-0.039024
-0.034146
-0.009756
0.004878
0.02439
0.039024
0.053658
0.058536
-0.019512
-0.063414
-0.2439
-0.453654
-0.556092
-0.56097
-0.56097
-0.36585
-0.224388
-0.165852
-0.078048
-0.02439
0.004878
0.009756
0.02439
0.029268
0.034146
0.039024
0.043902
0.04878
0.053658
0.053658
0.063414
0.063414
0.063414
0.068292
0.07317
0.078048
0.07317
0.07317
0.087804
0.09756
0.092682
0.09756
0.102438
0.117072
0.117072
0.12195
0.131706
0.136584
0.14634
0.151218
0.17073
0.180486
0.190242
0.19512
0.214632
0.234144
0.248778
0.263412
0.29268
0.307314
0.321948
0.331704
0.351216
0.370728
0.375606
0.380484
0.385362
0.39024
0.375606
0.360972
0.34146
0.321948
0.29268
0.273168
0.239022
0.209754
0.17073
0.156096
0.131706
0.107316
0.082926
0.07317
0.068292
0.053658
0.039024
0.034146
0.029268
0.034146
0.019512
0.009756
0.014634
0.02439
0.014634
0.009756
0.009756
0.019512
0.019512
0.014634
0.019512
0.02439
0.019512
0.019512
0.02439
0.029268
0.019512
0.019512
0.029268
0.029268
0.014634
0.019512
0.02439
0.029268
0.019512
0.009756
0.019512
0.02439
0.019512
0.014634
0.009756
0.014634
0.009756
0.009756
0.009756
0.009756
0.004878
0.004878
0.004878
0.004878
0
0
0.004878
0.004878
-0.009756
-0.009756
0
0.004878
-0.009756
-0.009756
-0.004878
0.004878
-0.004878
-0.009756
-0.009756
0
0
-0.009756
-0.004878
-0.004878
-0.004878
-0.009756
-0.009756
-0.004878
-0.014634
-0.014634
-0.004878
-0.004878
-0.014634
-0.014634
-0.004878
0
-0.009756
-0.014634
-0.009756
0
-0.004878
-0.009756
-0.009756
-0.004878
-0.009756
-0.009756
-0.009756
-0.004878
-0.004878
-0.009756
-0.009756
-0.004878
-0.014634
-0.014634
-0.004878
-0.004878
-0.009756
-0.014634
-0.014634
-0.004878
-0.009756
-0.009756
-0.009756
0
-0.009756
-0.014634
-0.014634
-0.004878
-0.009756
-0.009756
-0.009756
-0.004878
-0.004878
-0.009756
-0.009756
-0.004878
-0.009756
-0.009756
-0.004878
-0.004878
-0.014634
-0.014634
-0.004878
0
-0.009756
-0.014634
-0.004878
0.004878
-0.004878
-0.009756
-0.014634
0
0
-0.004878
0
0.009756
0.02439
0.034146
0.04878
0.053658
0.034146
0.034146
0.039024
0.034146
0.019512
0.004878
-0.004878
0
-0.014634
-0.019512
-0.019512
-0.014634
-0.019512
-0.02439
-0.029268
-0.019512
-0.014634
-0.02439
-0.02439
-0.019512
-0.014634
-0.019512
-0.019512
-0.014634
-0.014634
-0.014634
0.009756
0.034146
0.039024
0.053658
0.068292
0.043902
-0.034146
-0.092682
-0.287802
-0.482922
-0.570726
-0.570726
-0.4878
-0.326826
-0.180486
-0.117072
-0.043902
0.009756
0.034146
0.039024
0.043902
0.053658
0.058536
0.058536
0.068292
0.07317
0.07317
0.07317
0.082926
0.087804
0.082926
0.078048
0.087804
0.107316
0.09756
0.09756
0.102438
0.112194
0.12195
0.117072
0.112194
0.131706
0.141462
0.141462
0.14634
0.156096
0.17073
0.17073
0.185364
0.204876
0.209754
0.214632
0.234144
0.253656
0.26829
0.278046
0.302436
0.331704
0.34146
0.346338
0.36585
0.39024
0.399996
0.399996
0.404874
0.409752
0.404874
0.395118
0.375606
0.351216
0.31707
0.302436
0.26829
0.239022
0.199998
0.185364
0.156096
0.131706
0.107316
0.09756
0.087804
0.078048
0.063414
0.053658
0.043902
0.053658
0.04878
0.043902
0.039024
0.043902
0.04878
0.043902
0.039024
0.043902
0.043902
0.039024
0.039024
0.043902
0.039024
0.039024
0.043902
0.04878
0.043902
0.039024
0.043902
0.04878
0.04878
0.043902
0.039024
0.04878
0.053658
0.043902
0.039024
0.04878
0.04878
0.043902
0.039024
0.039024
0.034146
0.034146
0.034146
0.029268
0.029268
0.029268
0.029268
0.029268
0.02439
0.019512
0.02439
0.02439
0.02439
0.019512
0.009756
0.02439
0.02439
0.014634
0.009756
0.019512
0.019512
0.014634
0.009756
0.009756
0.014634
0.009756
0.009756
0.014634
0.009756
0.009756
0.014634
0.009756
0.004878
0.004878
0.009756
0.014634
0.009756
0.004878
0.004878
0.019512
0.019512
0.009756
0
0.004878
0.009756
0.004878
0.004878
0.004878
0.009756
0.004878
0.004878
0.004878
0.004878
0.004878
0.009756
0.009756
0.004878
0
0.004878
0.009756
0.009756
0
-0.004878
0.009756
0.014634
0.004878
0
0.009756
0.009756
0.004878
0.004878
0.004878
0.009756
0.009756
0.004878
0.009756
0.004878
0.004878
0.004878
0.009756
0.004878
0
0.004878
0.009756
0.004878
0.004878
0
0.004878
0.009756
0.004878
0
0.009756
0.009756
0.004878
0.004878
0.004878
0.009756
0.009756
0.004878
0.004878
0.004878
0.004878
0.004878
0.009756
0.004878
0
0.004878
0.009756
0.009756
0.004878
0.004878
0.019512
0.034146
0.039024
0.058536
0.053658
0.04878
0.043902
0.043902
0.043902
0.029268
0.02439
0
0.004878
0
0
-0.009756
-0.009756
-0.004878
-0.014634
-0.009756
-0.009756
-0.014634
-0.019512
-0.019512
-0.009756
-0.009756
-0.009756
-0.014634
-0.004878
0
0
-0.004878
0.029268
0.04878
0.053658
0.078048
0.063414
0.02439
-0.039024
-0.209754
-0.399996
-0.51219
-0.541458
-0.4878
-0.336582
-0.190242
-0.141462
-0.058536
0
0.029268
0.039024
0.043902
0.053658
0.063414
0.063414
0.063414
0.07317
0.078048
0.078048
0.078048
0.082926
0.087804
0.087804
0.092682
0.102438
0.102438
0.09756
0.107316
0.112194
0.107316
0.107316
0.117072
0.126828
0.136584
0.131706
0.141462
0.151218
0.165852
0.165852
0.17073
0.185364
0.204876
0.214632
0.224388
0.239022
0.258534
0.26829
0.287802
0.302436
0.31707
0.331704
0.356094
0.375606
0.385362
0.385362
0.395118
0.399996
0.395118
0.385362
0.36585
0.356094
0.31707
0.297558
0.263412
0.229266
0.204876
0.190242
0.156096
0.131706
0.112194
0.102438
0.082926
0.068292
0.058536
0.053658
0.043902
0.043902
0.039024
0.034146
0.029268
0.039024
0.029268
0.02439
0.02439
0.034146
0.034146
0.029268
0.02439
0.029268
0.034146
0.029268
0.029268
0.029268
0.034146
0.034146
0.034146
0.029268
0.029268
0.029268
0.039024
0.039024
0.029268
0.02439
0.02439
0.029268
0.02439
0.02439
0.02439
0.02439
0.019512
0.019512
0.014634
0.014634
0.014634
0.014634
0.009756
0.009756
0.004878
0.009756
0.014634
0.004878
0
0.004878
0.004878
0.004878
0
0
-0.004878
0
-0.004878
-0.009756
-0.004878
-0.004878
-0.004878
-0.009756
-0.009756
-0.009756
-0.004878
-0.004878
-0.009756
-0.004878
-0.004878
-0.004878
-0.004878
-0.009756
-0.014634
-0.014634
-0.004878
-0.009756
-0.019512
-0.019512
-0.014634
-0.009756
-0.014634
-0.019512
-0.014634
-0.009756
-0.014634
-0.014634
-0.019512
-0.019512
-0.014634
-0.014634
-0.019512
-0.019512
-0.014634
-0.019512
-0.019512
-0.019512
-0.02439
-0.019512
-0.014634
-0.014634
-0.029268
-0.02439
-0.019512
-0.019512
-0.014634
-0.02439
-0.02439
-0.014634
-0.019512
-0.019512
-0.02439
-0.019512
-0.019512
-0.02439
-0.02439
-0.02439
-0.02439
-0.029268
-0.029268
-0.02439
-0.029268
-0.029268
-0.02439
-0.019512
-0.029268
-0.029268
-0.019512
-0.019512
-0.02439
-0.029268
-0.029268
-0.019512
-0.02439
-0.029268
-0.029268
-0.029268
-0.029268
-0.029268
-0.029268
-0.02439
-0.029268
-0.029268
-0.029268
-0.034146
-0.034146
-0.029268
-0.019512
-0.02439
-0.02439
-0.019512
-0.009756
0.019512
0.029268
0.014634
0.004878
0.019512
0.014634
0.004878
-0.004878
-0.019512
-0.029268
-0.029268
-0.039024
-0.039024
-0.043902
-0.043902
-0.04878
-0.04878
-0.04878
-0.04878
-0.04878
-0.043902
-0.04878
-0.053658
-0.053658
-0.039024
-0.053658
-0.063414
-0.04878
-0.039024
-0.014634
-0.009756
0
0.029268
0.053658
0.058536
0.043902
-0.053658
-0.263412
-0.351216
-0.478044
-0.51219
-0.448776
-0.399996
-0.253656
-0.151218
-0.092682
-0.068292
-0.02439
0
0
0
0.014634
0.02439
0.019512
0.019512
0.02439
0.029268
0.034146
0.034146
0.034146
0.034146
0.039024
0.039024
0.043902
0.04878
0.04878
0.04878
0.058536
0.068292
0.063414
0.068292
0.07317
0.082926
0.092682
0.092682
0.107316
0.136584
0.141462
0.14634
0.165852
0.185364
0.204876
0.214632
0.239022
0.26829
0.282924
0.29268
0.31707
0.336582
0.356094
0.36585
0.39024
0.41463
0.434142
0.443898
0.468288
0.478044
0.43902
0.424386
0.385362
0.346338
0.307314
0.29268
0.278046
0.287802
0.297558
0.29268
0.307314
0.29268
0.273168
0.248778
0.214632
0.185364
0.131706
0.107316
0.112194
0.117072
0.117072
0.107316
0.09756
0.087804
0.082926
0.07317
0.058536
0.058536
0.063414
0.068292
0.078048
0.058536
0.039024
0.034146
0.034146
0.04878
0.043902
0.034146
0.02439
0.034146
0
0
0.004878
0.004878
-0.014634
-0.014634
0
0.019512
0.02439
0.019512
0.019512
0.02439
0.034146
0.019512
0.009756
0.019512
0.004878
-0.004878
-0.014634
0.004878
0.014634
0.004878
-0.004878
-0.009756
-0.014634
-0.019512
-0.004878
-0.009756
-0.014634
-0.02439
-0.029268
-0.009756
-0.02439
-0.034146
-0.034146
-0.02439
-0.034146
-0.039024
-0.043902
-0.053658
-0.039024
-0.053658
-0.068292
-0.058536
-0.043902
-0.053658
-0.063414
-0.07317
-0.078048
-0.078048
-0.068292
-0.058536
-0.068292
-0.082926
-0.092682
-0.07317
-0.078048
-0.082926
-0.078048
-0.078048
-0.107316
-0.09756
-0.087804
-0.09756
-0.087804
-0.09756
-0.07317
-0.092682
-0.102438
-0.12195
-0.141462
-0.112194
-0.102438
-0.107316
-0.112194
-0.092682
-0.102438
-0.112194
-0.12195
-0.117072
-0.126828
-0.131706
-0.12195
-0.12195
-0.12195
-0.126828
-0.131706
-0.12195
-0.14634
-0.151218
-0.136584
-0.107316
-0.131706
-0.136584
-0.141462
-0.136584
-0.126828
-0.12195
-0.117072
-0.131706
-0.126828
-0.126828
-0.131706
-0.126828
-0.102438
-0.082926
-0.068292
-0.102438
-0.09756
-0.102438
-0.102438
-0.082926
-0.131706
-0.14634
-0.165852
-0.151218
-0.160974
-0.165852
-0.17073
-0.160974
-0.151218
-0.175608
-0.151218
-0.156096
-0.17073
-0.180486
-0.185364
-0.165852
-0.180486
-0.180486
-0.160974
-0.131706
-0.112194
-0.12195
-0.131706
-0.092682
-0.063414
-0.058536
-0.092682
-0.151218
-0.31707
-0.41463
-0.565848
-0.619506
-0.624384
-0.556092
-0.429264
-0.31707
-0.21951
-0.190242
-0.141462
-0.12195
-0.117072
-0.112194
-0.107316
-0.09756
-0.082926
-0.082926
-0.087804
-0.068292
-0.058536
-0.07317
-0.092682
-0.107316
-0.07317
-0.07317
-0.063414
-0.043902
-0.034146
-0.053658
-0.07317
-0.058536
-0.053658
-0.053658
-0.043902
-0.029268
-0.02439
-0.02439
-0.004878
0.004878
0.019512
0.009756
0.004878
0.039024
0.058536
0.063414
0.068292
0.102438
0.136584
0.136584
0.14634
0.165852
0.180486
0.185364
0.209754
0.204876
0.185364
0.190242
0.199998
0.204876
0.19512
0.190242
0.141462
0.12195
0.092682
0.07317
0.043902
0.004878
-0.019512
-0.02439
-0.053658
-0.068292
-0.087804
-0.082926
-0.078048
-0.09756
-0.117072
-0.12195
-0.12195
-0.126828
-0.102438
-0.117072
-0.126828
-0.117072
-0.107316
-0.117072
-0.136584
-0.131706
-0.087804
-0.09756
-0.112194
-0.112194
-0.107316
-0.112194
-0.117072
-0.112194
-0.092682
-0.102438
-0.112194
-0.112194
-0.09756
-0.092682
-0.117072
-0.117072
-0.092682
-0.107316
-0.12195
-0.12195
-0.107316
-0.102438
-0.12195
-0.117072
-0.117072
-0.117072
-0.126828
-0.136584
-0.12195
-0.117072
-0.141462
-0.117072
-0.107316
-0.117072
-0.126828
-0.131706
-0.126828
-0.126828
-0.131706
-0.126828
-0.117072
-0.126828
-0.131706
-0.112194
-0.107316
-0.131706
-0.136584
-0.126828
-0.131706
-0.126828
-0.126828
-0.131706
-0.136584
-0.126828
-0.126828
-0.126828
-0.107316
-0.12195
-0.131706
-0.112194
-0.126828
-0.131706
-0.126828
-0.107316
-0.087804
-0.082926
-0.078048
-0.063414
-0.043902
-0.034146
-0.009756
-0.004878
0
-0.009756
-0.02439
-0.034146
-0.043902
-0.053658
-0.063414
-0.07317
-0.082926
-0.102438
-0.14634
-0.185364
-0.190242
-0.17073
-0.17073
-0.14634
-0.131706
-0.131706
-0.126828
-0.107316
-0.09756
-0.112194
-0.078048
-0.087804
-0.09756
-0.092682
-0.078048
-0.078048
-0.092682
-0.09756
-0.12195
-0.102438
-0.09756
-0.092682
-0.082926
-0.09756
-0.102438
-0.087804
-0.082926
-0.087804
-0.07317
-0.063414
-0.04878
-0.034146
-0.019512
-0.029268
-0.039024
-0.053658
-0.082926
-0.092682
-0.102438
-0.107316
-0.12195
-0.136584
-0.14634
-0.14634
-0.156096
-0.156096
-0.156096
-0.14634
-0.14634
-0.151218
-0.141462
-0.117072
-0.112194
-0.12195
-0.126828
-0.092682
-0.068292
-0.058536
-0.053658
-0.014634
0.014634
-0.014634
-0.092682
-0.229266
-0.41463
-0.51219
-0.619506
-0.604872
-0.541458
-0.458532
-0.307314
-0.165852
-0.082926
-0.068292
-0.043902
-0.034146
-0.04878
-0.04878
-0.04878
-0.053658
-0.07317
-0.087804
-0.102438
-0.12195
-0.087804
-0.078048
-0.058536
-0.034146
-0.014634
-0.004878
0.004878
0.019512
0.029268
0.02439
0.02439
0.039024
0.043902
0.034146
0.019512
0
0.014634
0.029268
0.063414
0.092682
0.107316
0.112194
0.107316
0.102438
0.102438
0.112194
0.131706
0.156096
0.17073
0.165852
0.214632
0.234144
0.26829
0.29268
0.336582
0.36585
0.370728
0.356094
0.34146
0.312192
0.307314
0.29268
0.258534
0.224388
0.190242
0.17073
0.151218
0.131706
0.107316
0.087804
0.053658
0.043902
0.034146
0.02439
0.014634
0
-0.009756
-0.009756
-0.004878
-0.014634
-0.029268
-0.034146
-0.039024
-0.04878
-0.034146
-0.034146
-0.029268
-0.02439
-0.034146
-0.034146
-0.034146
-0.043902
-0.034146
-0.034146
-0.029268
-0.02439
-0.019512
-0.039024
-0.014634
-0.009756
-0.029268
-0.029268
-0.029268
-0.02439
-0.019512
-0.014634
-0.034146
-0.029268
-0.04878
-0.039024
-0.019512
-0.019512
-0.034146
-0.039024
-0.029268
-0.039024
-0.039024
-0.039024
-0.043902
-0.058536
-0.063414
-0.063414
-0.04878
-0.043902
-0.04878
-0.063414
-0.07317
-0.058536
-0.039024
-0.039024
-0.082926
-0.09756
-0.07317
-0.063414
-0.053658
-0.063414
-0.078048
-0.058536
-0.07317
-0.053658
-0.063414
-0.063414
-0.082926
-0.09756
-0.078048
-0.07317
-0.068292
-0.082926
-0.087804
-0.082926
-0.07317
-0.068292
-0.078048
-0.082926
-0.082926
-0.087804
-0.07317
-0.07317
-0.07317
-0.068292
-0.063414
-0.082926
-0.087804
-0.063414
-0.07317
-0.078048
-0.082926
-0.07317
-0.068292
-0.078048
-0.07317
-0.063414
-0.078048
-0.082926
-0.087804
-0.082926
-0.078048
-0.082926
-0.092682
-0.07317
-0.068292
-0.07317
-0.082926
-0.092682
-0.07317
-0.063414
-0.07317
-0.063414
-0.068292
-0.07317
-0.082926
-0.087804
-0.078048
-0.082926
-0.102438
-0.07317
-0.087804
-0.082926
-0.053658
-0.019512
-0.043902
-0.053658
-0.053658
-0.034146
-0.039024
-0.043902
-0.053658
-0.04878
-0.082926
-0.092682
-0.087804
-0.112194
-0.102438
-0.09756
-0.092682
-0.107316
-0.112194
-0.112194
-0.112194
-0.12195
-0.112194
-0.112194
-0.107316
-0.112194
-0.09756
-0.092682
-0.087804
-0.068292
-0.039024
-0.034146
-0.009756
0.014634
-0.039024
-0.078048
-0.239022
-0.419508
-0.556092
-0.565848
-0.570726
-0.448776
-0.331704
-0.278046
-0.185364
-0.112194
-0.082926
-0.078048
-0.068292
-0.058536
-0.043902
-0.043902
-0.04878
-0.039024
-0.029268
-0.029268
-0.02439
-0.034146
-0.039024
-0.029268
-0.034146
-0.014634
-0.009756
-0.009756
-0.014634
-0.014634
-0.009756
-0.019512
0.009756
0.019512
0.029268
0.029268
0.029268
0.053658
0.07317
0.068292
0.078048
0.107316
0.112194
0.12195
0.141462
0.165852
0.175608
0.180486
0.209754
0.229266
0.248778
0.253656
0.282924
0.307314
0.312192
0.29268
0.287802
0.31707
0.312192
0.302436
0.273168
0.248778
0.234144
0.224388
0.17073
0.131706
0.09756
0.082926
0.063414
0.043902
0.009756
-0.004878
-0.029268
-0.009756
-0.029268
-0.039024
-0.043902
-0.019512
-0.058536
-0.082926
-0.058536
-0.087804
-0.107316
-0.102438
-0.063414
-0.034146
-0.039024
-0.043902
-0.053658
-0.07317
-0.043902
-0.07317
-0.12195
-0.14634
-0.09756
-0.068292
-0.034146
-0.043902
-0.07317
-0.082926
-0.092682
-0.092682
-0.102438
-0.112194
-0.17073
-0.151218
-0.141462
-0.12195
-0.082926
-0.058536
-0.053658
-0.068292
-0.092682
-0.141462
-0.126828
-0.09756
-0.068292
-0.09756
-0.068292
-0.12195
-0.253656
-0.297558
-0.185364
-0.136584
-0.082926
-0.07317
-0.165852
-0.185364
-0.204876
-0.258534
-0.31707
-0.321948
-0.331704
-0.346338
-0.36585
-0.370728
-0.419508
-0.434142
-0.41463
-0.41463
-0.419508
-0.409752
-0.419508
-0.370728
-0.360972
-0.253656
-0.160974
-0.19512
-0.258534
-0.331704
-0.39024
-0.409752
-0.380484
-0.39024
-0.356094
-0.31707
-0.248778
-0.204876
-0.17073
-0.160974
-0.112194
-0.14634
-0.092682
-0.082926
-0.063414
-0.043902
-0.043902
-0.04878
-0.063414
-0.068292
-0.058536
-0.063414
-0.068292
-0.034146
-0.019512
-0.053658
-0.039024
-0.019512
-0.009756
-0.019512
-0.029268
-0.029268
0
-0.004878
0.04878
0.107316
0.082926
0.068292
0.058536
0.063414
0.043902
0.039024
0.019512
0.004878
0.014634
0.009756
0
-0.004878
0.004878
-0.009756
0
-0.019512
-0.058536
-0.063414
-0.078048
-0.082926
-0.102438
-0.112194
-0.112194
-0.092682
-0.102438
-0.112194
-0.12195
-0.068292
-0.039024
-0.019512
0.014634
-0.039024
-0.156096
-0.229266
-0.395118
-0.556092
-0.653652
-0.678042
-0.643896
-0.517068
-0.36585
-0.302436
-0.209754
-0.180486
-0.165852
-0.17073
-0.131706
-0.165852
-0.151218
-0.165852
-0.175608
-0.160974
-0.185364
-0.199998
-0.21951
-0.21951
-0.156096
-0.141462
-0.126828
-0.185364
-0.229266
-0.248778
-0.156096
-0.131706
-0.180486
-0.2439
-0.385362
-0.46341
-0.307314
-0.214632
0.02439
0.087804
0.107316
0.107316
0.102438
0.068292
0.039024
0.07317
0.19512
0.102438
0.039024
0.02439
0.009756
0.082926
0.131706
0.112194
0.131706
0.356094
0.478044
0.297558
0.043902
-0.063414
-0.092682
-0.092682
-0.087804
-0.087804
-0.058536
-0.034146
-0.009756
-0.029268
-0.039024
-0.029268
-0.034146
-0.034146
-0.019512
-0.02439
-0.029268
-0.019512
-0.009756
0
-0.009756
-0.019512
-0.029268
-0.019512
0
0.009756
-0.009756
-0.009756
0.014634
0.019512
0.004878
0
-0.004878
0.014634
0.02439
0.02439
0.029268
0.019512
0.034146
0.039024
0.04878
0.029268
0.029268
0.034146
0.058536
0.058536
0.053658
0.053658
0.039024
0.029268
0.039024
0.053658
0.068292
0.078048
0.082926
0.078048
0.04878
0.02439
0.043902
0.058536
0.102438
0.068292
0.04878
0.053658
0.068292
0.082926
0.092682
0.078048
0.063414
0.087804
0.07317
0.053658
0.039024
0.078048
0.09756
0.09756
0.107316
0.102438
0.117072
0.117072
0.131706
0.14634
0.165852
0.175608
0.199998
0.253656
0.302436
0.326826
0.395118
0.565848
0.697554
0.712188
0.624384
0.473166
0.278046
0.29268
0.356094
0.404874
0.082926
0.07317
0.004878
0.102438
-0.07317
-0.21951
-0.443898
-0.521946
-0.39024
-0.53658
-0.56097
-0.590238
-0.619506
-0.556092
-0.41463
-0.278046
-0.151218
-0.082926
-0.068292
-0.136584
-0.12195
-0.058536
0
-0.897552
-1.087794
-0.882918
-0.678042
-0.526824
-0.370728
-0.321948
-0.239022
-0.204876
-0.185364
-0.175608
-0.160974
-0.151218
-0.126828
-0.117072
-0.102438
-0.151218
-0.082926
-0.087804
-0.087804
-0.068292
-0.092682
-0.082926
-0.068292
-0.082926
-0.092682
-0.082926
-0.029268
-0.07317
-0.058536
-0.058536
-0.058536
-0.063414
-0.02439
-0.014634
-0.004878
-0.014634
0
0.039024
0.078048
0.019512
-0.058536
-0.102438
-0.307314
-0.482922
-0.53658
-0.507312
-0.404874
-0.282924
-0.190242
-0.151218
-0.07317
-0.02439
-0.009756
0.004878
0.02439
0.009756
0.029268
0.02439
0.034146
0.063414
0.053658
0.053658
0.058536
0.04878
0.068292
0.078048
0.078048
0.082926
0.087804
0.082926
0.07317
0.131706
0.151218
0.107316
0.107316
0.131706
0.14634
0.141462
0.136584
0.151218
0.165852
0.160974
0.19512
0.248778
0.2439
0.229266
0.209754
0.263412
0.297558
0.31707
0.287802
0.273168
0.263412
0.282924
0.321948
0.351216
0.360972
0.346338
0.370728
0.36585
0.331704
0.326826
0.321948
0.307314
0.278046
0.258534
0.248778
0.204876
0.185364
0.185364
0.156096
0.117072
0.082926
0.068292
0.09756
0.07317
0.058536
0.063414
0.063414
0.058536
0.04878
0.043902
0.043902
0.043902
0.07317
0.063414
0.053658
0.053658
0.053658
0.058536
0.058536
0.043902
0.043902
0.039024
0.02439
0.009756
0.004878
0.019512
0.009756
-0.014634
0.004878
0.009756
0.019512
0.004878
-0.009756
-0.004878
0.034146
0.043902
0.07317
0.082926
0.092682
0.034146
0.053658
0.058536
0.068292
0.107316
0.107316
0.092682
0.082926
0.102438
0.131706
0.151218
0.199998
0.234144
0.224388
0.21951
0.21951
0.224388
0.165852
0.141462
0.151218
0.126828
0.09756
0.082926
0.068292
0.12195
0.17073
0.17073
0.229266
0.326826
0.29268
0.273168
0.199998
0.14634
0.253656
0.331704
0.419508
0.063414
-0.068292
-0.043902
-0.014634
-0.034146
0.02439
-0.126828
-0.112194
-0.117072
-0.34146
-0.41463
-0.614628
-0.907308
-1.180476
-1.287792
-1.239012
-1.136574
-0.956088
-0.907308
-0.814626
-0.741456
-0.65853
-0.60975
-0.51219
-0.434142
-0.34146
-0.273168
-0.131706
-0.043902
-0.02439
-0.02439
-0.02439
-0.019512
-0.053658
-0.053658
-0.039024
-0.02439
-0.068292
-0.068292
-0.019512
0
-0.004878
0
0.029268
0.07317
0.092682
0.07317
0.068292
0.04878
0.014634
0.009756
0.004878
0.063414
0.082926
0.068292
0.068292
0.09756
0.12195
0.12195
0.136584
0.156096
-0.014634
-0.102438
-0.282924
-0.385362
-0.41463
-0.375606
-0.302436
-0.190242
-0.063414
-0.009756
0.039024
0.09756
0.09756
0.112194
0.126828
0.107316
0.092682
0.102438
0.12195
0.107316
0.131706
0.126828
0.12195
0.131706
0.126828
0.12195
0.117072
0.126828
0.126828
0.141462
0.156096
0.117072
0.131706
0.14634
0.136584
0.141462
0.131706
0.131706
0.141462
0.160974
0.165852
0.156096
0.165852
0.180486
0.199998
0.190242
0.185364
0.229266
0.2439
0.248778
0.278046
0.302436
0.273168
0.278046
0.297558
0.31707
0.331704
0.336582
0.346338
0.321948
0.297558
0.302436
0.307314
0.253656
0.214632
0.204876
0.180486
0.160974
0.102438
0.092682
0.082926
0.07317
0.063414
0.058536
0.029268
0.019512
0.014634
0.009756
0.004878
0
-0.009756
-0.009756
-0.004878
-0.014634
0
-0.004878
-0.009756
0.009756
0.019512
0
0.014634
0.04878
0.019512
0.02439
0.02439
0.02439
0.029268
-0.004878
0.004878
-0.014634
-0.009756
-0.019512
-0.02439
-0.004878
0.014634
-0.014634
-0.034146
-0.014634
-0.004878
-0.004878
-0.009756
-0.014634
-0.014634
-0.009756
0.004878
0.004878
-0.004878
-0.014634
-0.02439
-0.029268
-0.004878
-0.029268
-0.053658
-0.02439
-0.029268
-0.034146
-0.039024
-0.043902
-0.039024
-0.034146
-0.043902
-0.019512
-0.034146
-0.034146
-0.029268
-0.043902
-0.04878
-0.039024
-0.039024
-0.053658
-0.04878
-0.039024
-0.02439
-0.043902
-0.039024
-0.039024
-0.029268
-0.04878
-0.043902
-0.043902
-0.04878
-0.043902
-0.043902
-0.043902
-0.029268
-0.029268
-0.043902
-0.04878
-0.053658
-0.019512
-0.043902
-0.043902
-0.04878
-0.029268
-0.034146
-0.043902
-0.053658
-0.029268
-0.02439
-0.014634
-0.034146
-0.029268
0
0.004878
0.019512
0.02439
0.029268
0.02439
0.004878
-0.019512
0.004878
0
-0.02439
-0.034146
-0.029268
-0.063414
-0.058536
-0.02439
-0.058536
-0.063414
-0.068292
-0.043902
-0.039024
-0.078048
-0.078048
-0.078048
-0.058536
-0.058536
-0.053658
-0.063414
-0.039024
-0.014634
-0.014634
0.004878
0.04878
0.034146
0.004878
-0.078048
-0.2439
-0.346338
-0.526824
-0.570726
-0.556092
-0.502434
-0.356094
-0.21951
-0.141462
-0.117072
-0.107316
-0.02439
0.004878
0
-0.009756
-0.009756
0.009756
0.004878
0.014634
0.019512
0.019512
0.009756
0
0.034146
0.04878
0.019512
0.029268
0.039024
0.039024
0.043902
0.053658
0.053658
0.058536
0.053658
0.068292
0.063414
0.087804
0.092682
0.09756
0.082926
0.112194
0.117072
0.107316
0.112194
0.151218
0.156096
0.17073
0.190242
0.204876
0.214632
0.234144
0.273168
0.263412
0.258534
0.253656
0.282924
0.297558
0.297558
0.287802
0.26829
0.258534
0.234144
0.204876
0.190242
0.17073
0.156096
0.12195
0.087804
0.078048
0.078048
0.063414
0.039024
0.029268
0.029268
0.004878
0
0.004878
0.004878
0
-0.009756
0.019512
0.02439
-0.019512
0
0.058536
0.034146
-0.004878
-0.029268
-0.034146
-0.019512
-0.019512
-0.009756
0.02439
0.029268
0.043902
0.053658
0.009756
-0.014634
-0.039024
-0.034146
-0.019512
-0.019512
-0.034146
-0.04878
-0.058536
-0.063414
-0.136584
-0.156096
-0.112194
-0.136584
-0.156096
-0.131706
-0.12195
-0.14634
-0.185364
-0.156096
-0.063414
-0.058536
-0.04878
-0.102438
-0.14634
-0.17073
-0.175608
-0.180486
-0.199998
-0.209754
-0.229266
-0.234144
-0.180486
-0.190242
-0.204876
-0.175608
-0.141462
-0.12195
-0.09756
-0.07317
-0.053658
-0.07317
-0.082926
-0.053658
-0.02439
-0.053658
-0.117072
-0.19512
-0.248778
-0.26829
-0.258534
-0.214632
-0.258534
-0.307314
-0.419508
-0.482922
-0.453654
-0.448776
-0.468288
-0.507312
-0.46341
-0.453654
-0.41463
-0.370728
-0.34146
-0.351216
-0.34146
-0.278046
-0.204876
-0.199998
-0.190242
-0.180486
-0.151218
-0.126828
-0.087804
-0.107316
-0.029268
-0.019512
0
0.004878
0.019512
0.029268
0.078048
0.117072
0.180486
0.185364
0.199998
0.2439
0.278046
0.273168
0.278046
0.31707
0.239022
0.185364
0.107316
0.053658
-0.034146
-0.087804
-0.136584
-0.136584
-0.126828
-0.160974
-0.239022
-0.336582
-0.385362
-0.302436
-0.112194
-0.102438
-0.141462
-0.165852
-0.19512
-0.126828
-0.043902
0.009756
0.043902
0.009756
-0.004878
-0.043902
-0.131706
-0.234144
-0.404874
-0.521946
-0.702432
-0.75609
-0.741456
-0.692676
-0.556092
-0.399996
-0.278046
-0.229266
-0.151218
-0.117072
-0.151218
-0.117072
-0.063414
-0.034146
-0.019512
-0.019512
-0.053658
-0.019512
-0.014634
-0.034146
-0.04878
-0.009756
0.009756
0.014634
-0.02439
0.004878
0.019512
0.019512
0.014634
0.068292
0.087804
0.087804
0.136584
0.141462
0.151218
0.165852
0.185364
0.199998
0.165852
0.204876
0.224388
0.253656
0.26829
0.312192
0.356094
0.302436
0.287802
0.321948
0.375606
0.380484
0.370728
0.419508
0.4878
0.502434
0.448776
0.443898
0.434142
0.404874
0.399996
0.360972
0.321948
0.356094
0.39024
0.278046
0.190242
0.102438
0.107316
0.087804
0.04878
0.039024
0.082926
0.063414
0
-0.009756
0.004878
0.009756
0.02439
0.039024
0.009756
0.053658
0.02439
0.039024
0.063414
0.063414
0.068292
-0.019512
-0.043902
-0.034146
-0.029268
-0.063414
-0.107316
-0.09756
-0.043902
-0.004878
-0.053658
-0.053658
-0.058536
-0.053658
-0.02439
-0.034146
-0.043902
-0.053658
-0.029268
-0.019512
0
0.009756
-0.02439
-0.019512
0
0.02439
0.02439
0.02439
0.009756
-0.009756
0.058536
0.043902
0.02439
0.019512
0.053658
0.034146
0.053658
0.039024
0.02439
0.034146
0.043902
0.034146
0.043902
0.053658
0.068292
0.063414
0.04878
0.04878
0.053658
0.034146
0.04878
0.058536
0.092682
0.063414
0.082926
0.092682
0.107316
0.058536
0.078048
0.058536
0.029268
0.043902
0.053658
0.04878
0.043902
0.043902
0.063414
0.07317
0.029268
0.034146
0.009756
0.019512
0.04878
0.092682
0.107316
0.07317
0.034146
0.043902
0.063414
0.078048
0.092682
0.04878
0.029268
0.02439
0.014634
0.04878
0.034146
0.019512
-0.014634
-0.039024
0
0.014634
0.029268
-0.004878
0.014634
0.034146
0.053658
0.029268
0.009756
0
0.029268
-0.004878
0.068292
0.058536
0.039024
0.029268
0.029268
0.078048
0.053658
0.078048
0.107316
0.107316
0.102438
0.092682
0.092682
0.102438
0.092682
0.063414
0.04878
0.039024
0.02439
0.02439
0.039024
0.043902
0.004878
-0.004878
0.019512
0.019512
0.014634
0.02439
0.043902
0.058536
0.053658
0.082926
0.102438
0.09756
0.092682
0.117072
0.131706
0.136584
0.131706
0.131706
0.07317
0.014634
-0.112194
-0.29268
-0.43902
-0.482922
-0.556092
-0.639018
-0.502434
-0.409752
-0.2439
-0.126828
-0.058536
-0.029268
0.014634
0.07317
0.082926
0.068292
0.053658
0.107316
0.151218
0.17073
0.209754
0.160974
0.151218
0.156096
0.165852
0.165852
0.160974
0.165852
0.165852
0.151218
0.180486
0.160974
0.136584
0.136584
0.190242
0.156096
0.17073
0.185364
0.190242
0.190242
0.185364
0.175608
0.19512
0.19512
0.278046
0.287802
0.278046
0.287802
0.302436
0.321948
0.34146
0.351216
0.360972
0.404874
0.41463
0.399996
0.39024
0.409752
0.385362
0.380484
0.380484
0.356094
0.307314
0.273168
0.21951
0.190242
0.165852
0.151218
0.141462
0.131706
0.12195
0.126828
0.131706
0.126828
0.107316
0.092682
0.053658
0.053658
-0.009756
-0.009756
-0.009756
-0.009756
-0.019512
-0.02439
-0.009756
0.034146
0.034146
0.04878
0.063414
0.043902
0.04878
0.039024
0.053658
0.082926
0.07317
0.082926
0.09756
0.126828
0.165852
0.175608
0.165852
0.19512
0.17073
0.151218
0.082926
0.02439
0.019512
0.039024
-0.04878
-0.043902
0.004878
0.004878
0.02439
0.043902
0.04878
0.039024
0.04878
0.043902
0.034146
0.039024
0.04878
0.058536
0.02439
0.009756
0.029268
0.029268
0.004878
0
-0.004878
0.043902
0.068292
0.029268
0.039024
0.063414
0.039024
0.029268
0.019512
0.063414
0.068292
0.04878
0.058536
0.087804
0.131706
0.131706
0.151218
0.190242
0.214632
0.190242
0.126828
0.09756
0.126828
0.107316
0.082926
0.078048
0.087804
0.102438
0.126828
0.107316
0.102438
0.112194
0.126828
0.136584
0.107316
0.102438
0.078048
0.107316
0.087804
0.068292
0.043902
0.07317
0.102438
0.063414
0.039024
0.053658
0.014634
0.014634
0.02439
0.043902
0.053658
0.04878
0.039024
0.043902
0.029268
0.009756
-0.029268
-0.043902
0.009756
0.02439
0.014634
0.019512
0.029268
0.029268
0.039024
0.043902
0.04878
0.014634
-0.004878
0
-0.009756
-0.014634
-0.014634
0.009756
-0.02439
-0.043902
-0.019512
-0.004878
-0.019512
-0.014634
-0.004878
0
-0.014634
-0.014634
-0.029268
-0.034146
-0.029268
0.004878
0.04878
0.063414
0.078048
0.092682
0.07317
-0.009756
-0.209754
-0.287802
-0.409752
-0.453654
-0.404874
-0.370728
-0.273168
-0.165852
-0.092682
-0.068292
-0.004878
0.039024
0.043902
0.043902
0.04878
0.063414
0.053658
0.043902
0.034146
0.058536
0.07317
0.082926
0.068292
0.082926
0.092682
0.092682
0.082926
0.07317
0.107316
0.112194
0.087804
0.112194
0.126828
0.131706
0.14634
0.151218
0.117072
0.107316
0.112194
0.107316
0.087804
0.087804
0.126828
0.209754
0.253656
0.17073
0.160974
0.263412
0.263412
0.258534
0.258534
0.263412
0.273168
0.278046
0.258534
0.287802
0.287802
0.282924
0.282924
0.297558
0.253656
0.258534
0.229266
0.185364
0.160974
0.131706
0.087804
0.068292
0.107316
0.12195
0.068292
0.063414
0.009756
0.004878
0
0.034146
0.019512
0.019512
0.009756
0.02439
0.019512
0.004878
-0.009756
0
0.009756
0.009756
-0.004878
0
0
0.004878
0.014634
0
0.014634
0.019512
0.02439
0.029268
0.02439
0.014634
0
-0.004878
0.02439
0.014634
0.02439
0.009756
-0.019512
-0.014634
0.009756
0.034146
0.019512
0.014634
-0.004878
0
-0.004878
0
0
0
-0.004878
0
0
0.009756
0.029268
0.009756
-0.004878
0.004878
0.014634
0.004878
-0.019512
-0.019512
0.019512
0.029268
0.039024
-0.004878
0.009756
-0.019512
0.004878
0.019512
0.029268
0.019512
0.014634
0.019512
0.034146
0.039024
0.04878
0.063414
0.07317
0.07317
0.068292
0.068292
0.107316
0.107316
0.117072
0.102438
0.063414
0.082926
0.09756
0.082926
0.078048
0.078048
0.082926
0.102438
0.12195
0.112194
0.102438
0.126828
0.141462
0.136584
0.126828
0.185364
0.214632
0.273168
0.331704
0.209754
0.102438
0.078048
0.078048
0.078048
0.126828
0.156096
0.190242
0.087804
0.063414
0.136584
0.21951
0.302436
0.360972
0.302436
0.2439
0.297558
0.360972
0.39024
0.434142
0.4878
0.473166
0.453654
0.399996
0.336582
0.278046
0.253656
0.165852
0.112194
0.136584
0.151218
0.175608
0.19512
0.239022
0.26829
0.312192
0.346338
0.375606
0.34146
0.29268
0.214632
0.053658
-0.04878
-0.190242
-0.229266
-0.234144
-0.199998
-0.112194
-0.004878
0.068292
0.09756
0.117072
0.131706
0.141462
0.151218
0.160974
0.14634
0.17073
0.185364
0.160974
0.185364
0.19512
0.175608
0.160974
0.175608
0.165852
0.156096
0.160974
0.175608
0.185364
0.185364
0.175608
0.156096
0.141462
0.17073
0.175608
0.175608
0.19512
0.204876
0.214632
0.21951
0.209754
0.229266
0.234144
0.209754
0.258534
0.278046
0.307314
0.34146
0.36585
0.370728
0.336582
0.375606
0.395118
0.395118
0.39024
0.385362
0.424386
0.448776
0.434142
0.429264
0.399996
0.375606
0.31707
0.282924
0.326826
0.273168
0.2439
0.190242
0.141462
0.131706
0.112194
0.078048
0.043902
0.039024
-0.004878
-0.019512
-0.004878
-0.019512
-0.039024
-0.043902
-0.014634
0
-0.009756
-0.053658
-0.043902
-0.029268
-0.009756
0
-0.009756
-0.004878
-0.014634
-0.014634
0.009756
-0.004878
-0.029268
-0.043902
-0.058536
-0.063414
-0.078048
-0.09756
-0.04878
-0.039024
-0.019512
-0.009756
-0.019512
-0.02439
-0.039024
-0.019512
-0.04878
-0.034146
-0.014634
-0.039024
-0.058536
-0.058536
-0.082926
-0.09756
-0.141462
-0.14634
-0.156096
-0.136584
-0.165852
-0.131706
-0.112194
-0.07317
-0.053658
-0.043902
-0.014634
0.009756
0.029268
0.04878
0.02439
-0.009756
-0.058536
-0.09756
-0.156096
-0.190242
-0.199998
-0.180486
-0.12195
-0.102438
-0.092682
-0.09756
-0.102438
-0.04878
-0.053658
-0.058536
-0.04878
-0.04878
-0.029268
-0.014634
0
-0.02439
-0.019512
-0.034146
-0.019512
-0.019512
0.009756
0.014634
0.019512
-0.034146
-0.043902
0.009756
0.058536
-0.004878
-0.009756
-0.019512
-0.029268
-0.014634
-0.009756
-0.02439
-0.014634
-0.034146
-0.034146
-0.029268
-0.019512
-0.053658
-0.019512
0.014634
-0.029268
-0.068292
-0.029268
-0.004878
0.039024
0.058536
0.04878
0.043902
0.039024
-0.004878
0.019512
0.009756
0.004878
0.004878
0.009756
-0.004878
-0.087804
-0.117072
-0.019512
-0.019512
-0.063414
-0.112194
-0.112194
-0.087804
-0.12195
-0.156096
-0.287802
-0.307314
-0.331704
-0.297558
-0.424386
-0.458532
-0.34146
-0.258534
-0.126828
-0.053658
0.04878
0.078048
-0.029268
-0.09756
-0.21951
-0.297558
-0.31707
-0.239022
-0.126828
-0.092682
-0.131706
-0.117072
-0.009756
0.136584
0.165852
0.14634
0.102438
0.078048
0.112194
0.12195
0.160974
0.175608
0.175608
0.190242
0.204876
0.19512
0.190242
0.190242
0.131706
0.112194
0.156096
0.17073
0.185364
0.17073
0.151218
0.136584
0.131706
0.117072
0.136584
0.131706
0.131706
0.14634
0.112194
0.107316
0.117072
0.14634
0.12195
0.107316
0.092682
0.087804
0.151218
0.185364
0.151218
0.151218
0.21951
0.248778
0.287802
0.297558
0.278046
0.287802
0.331704
0.307314
0.336582
0.356094
0.370728
0.321948
0.26829
0.224388
0.151218
0.092682
0.063414
0.04878
0.034146
0.053658
-0.053658
-0.092682
-0.141462
-0.17073
-0.185364
-0.180486
-0.160974
-0.131706
-0.107316
-0.09756
-0.082926
-0.053658
-0.058536
-0.043902
-0.029268
-0.019512
-0.019512
-0.019512
-0.034146
-0.039024
-0.043902
-0.053658
-0.058536
-0.04878
-0.053658
-0.039024
-0.039024
-0.02439
-0.019512
-0.019512
-0.014634
-0.004878
-0.019512
-0.019512
-0.034146
-0.034146
-0.019512
-0.009756
0
-0.02439
-0.029268
-0.029268
-0.019512
0
-0.019512
-0.019512
-0.019512
-0.029268
