1.823069
1.617791
1.539589
1.544477
1.583578
1.617791
1.647116
1.691105
1.681329
1.686217
1.681329
1.700880
1.695992
1.710655
1.715543
1.725318
1.735093
1.842620
1.964809
1.994135
1.725318
1.598240
1.603128
1.627566
1.456501
2.639296
2.346041
0.596285
1.480938
1.739980
1.808407
1.857283
1.891496
1.911046
1.955034
2.018573
2.091886
2.140763
2.047898
1.803519
1.598240
1.529814
1.568915
1.588465
1.627566
1.642229
1.681329
1.681329
1.695992
1.705767
1.695992
1.705767
1.705767
1.730205
1.837732
1.964809
1.930596
1.666667
1.598240
1.627566
1.642229
1.471163
3.308895
1.568915
0.772238
1.559140
1.764418
1.827957
1.862170
1.881720
1.930596
1.989247
2.067449
2.135875
2.150538
2.003910
1.749756
1.588465
1.544477
1.578690
1.608016
1.642229
1.681329
1.700880
1.720430
1.710655
1.710655
1.710655
1.710655
1.715543
1.832845
1.955034
1.964809
1.700880
1.578690
1.588465
1.622678
1.432063
2.952102
2.130987
0.654936
1.510264
1.739980
1.803519
1.832845
1.867058
1.896383
1.955034
2.023460
2.106549
2.135875
2.023460
1.774194
1.588465
1.554252
1.573803
1.617791
1.652004
1.671554
1.686217
1.695992
1.720430
1.705767
1.705767
1.749756
1.881720
2.003910
1.896383
1.637341
1.583578
1.612903
1.642229
1.515151
3.714565
1.285435
0.894428
1.608016
1.739980
1.798631
1.842620
1.881720
1.930596
1.984360
2.062561
2.121212
2.126100
1.930596
1.681329
1.559140
1.554252
1.588465
1.627566
1.671554
1.695992
1.730205
1.730205
1.744868
1.759531
1.744868
1.793744
1.930596
2.038123
1.955034
1.666667
1.608016
1.632454
1.666667
1.515151
3.577713
1.505376
0.855327
1.564027
1.705767
1.774194
1.798631
1.842620
1.881720
1.940371
2.018573
2.086999
2.077224
1.935484
1.739980
1.617791
1.578690
1.637341
1.725318
1.666667
1.783969
1.842620
1.813294
1.735093
1.715543
1.788856
1.930596
1.994135
1.808407
1.671554
1.588465
1.642229
1.554252
1.862170
3.030303
0.874878
1.070381
1.612903
1.739980
1.818182
1.749756
1.847507
1.915933
1.984360
1.994135
2.018573
2.013685
1.837732
1.544477
1.480938
1.549365
1.608016
1.598240
1.612903
1.593353
1.705767
1.661779
1.666667
1.705767
1.715543
1.798631
2.033236
1.974585
1.735093
1.637341
1.681329
1.637341
1.471163
3.118279
1.642229
0.889541
1.554252
1.730205
1.774194
1.808407
1.827957
1.749756
1.862170
1.999022
1.925709
2.082111
1.955034
1.803519
1.681329
1.871945
1.544477
1.593353
1.681329
1.632454
1.652004
1.725318
1.632454
1.554252
1.661779
1.603128
1.852395
1.827957
1.915933
1.783969
1.520039
1.549365
1.642229
1.422287
2.551320
2.218964
0.767351
1.564027
1.813294
1.886608
1.901271
1.930596
1.969697
2.013685
2.057673
1.994135
2.023460
1.891496
1.715543
1.524927
1.490714
1.520039
1.588465
1.671554
1.695992
1.686217
1.754643
1.681329
1.642229
1.710655
1.827957
1.925709
1.852395
1.632454
1.652004
1.793744
1.700880
1.422287
3.308895
1.568915
0.904203
1.564027
1.735093
1.803519
1.901271
1.837732
1.867058
1.881720
1.964809
2.077224
2.086999
1.920821
1.749756
1.617791
1.603128
1.656891
1.739980
1.808407
1.754643
1.764418
1.725318
1.715543
1.705767
1.764418
1.896383
1.945259
1.744868
1.622678
1.622678
1.622678
1.500489
2.248289
2.761486
0.860215
1.334311
1.691105
1.774194
1.837732
1.867058
1.901271
1.945259
2.003910
2.106549
2.145650
2.062561
1.842620
1.666667
1.617791
1.637341
1.666667
1.666667
1.681329
1.695992
1.695992
1.710655
1.730205
1.793744
1.920821
1.994135
1.798631
1.642229
1.627566
1.652004
1.608016
1.749756
3.460411
0.967742
1.236559
1.671554
1.769306
1.813294
1.847507
1.886608
1.935484
1.989247
2.111437
2.150538
2.116324
1.891496
1.681329
1.617791
1.608016
1.652004
1.681329
1.700880
1.705767
1.715543
1.725318
1.730205
1.783969
1.881720
1.959922
1.764418
1.617791
1.627566
1.647116
1.588465
1.827957
3.333333
0.957967
1.187683
1.642229
1.754643
1.788856
1.837732
1.867058
1.915933
1.994135
2.082111
2.150538
2.101662
1.857283
1.652004
1.578690
1.598240
1.627566
1.681329
1.686217
1.691105
1.715543
1.720430
1.759531
1.881720
1.994135
1.803519
1.647116
1.632454
1.666667
1.647116
1.744868
3.533724
1.085044
1.158358
1.642229
1.749756
1.788856
1.823069
1.891496
1.911046
1.974585
2.047898
2.116324
2.096774
1.886608
1.700880
1.622678
1.656891
1.671554
1.695992
1.710655
1.705767
1.705767
1.715543
1.749756
1.847507
1.979472
1.886608
1.666667
1.642229
1.652004
1.681329
1.476051
3.607038
1.441838
0.982405
1.583578
1.710655
1.744868
1.798631
1.832845
1.871945
1.935484
2.023460
2.101662
2.101662
1.915933
1.700880
1.617791
1.573803
1.612903
1.647116
1.676442
1.686217
1.681329
1.700880
1.720430
1.823069
1.964809
1.886608
1.652004
1.612903
1.617791
1.637341
1.412512
3.440860
1.573803
0.909091
1.539589
1.681329
1.754643
1.788856
1.827957
1.862170
1.915933
1.984360
2.077224
2.072336
1.896383
1.676442
1.578690
1.573803
1.622678
1.652004
1.671554
1.691105
1.705767
1.710655
1.754643
1.871945
1.994135
1.818182
1.632454
1.608016
1.627566
1.603128
1.691105
3.797654
0.972630
1.265885
1.612903
1.710655
1.754643
1.788856
1.813294
1.867058
1.925709
2.008798
2.062561
2.028348
1.818182
1.637341
1.588465
1.583578
1.627566
1.661779
1.671554
1.686217
1.681329
1.681329
1.739980
1.867058
1.974585
1.744868
1.573803
1.559140
1.588465
1.520039
1.803519
3.338221
0.869990
1.339198
1.622678
1.700880
1.749756
1.793744
1.842620
1.881720
1.955034
2.067449
2.096774
2.043011
1.823069
1.642229
1.603128
1.617791
1.647116
1.661779
1.666667
1.666667
1.676442
1.695992
1.769306
1.896383
1.969697
1.735093
1.612903
1.617791
1.647116
1.456501
2.326491
2.624633
0.835777
1.500489
1.671554
1.725318
1.774194
1.808407
1.857283
1.906158
1.974585
2.047898
2.091886
1.984360
1.774194
1.612903
1.573803
1.593353
1.632454
1.666667
1.681329
1.710655
1.700880
1.725318
1.832845
1.969697
1.891496
1.652004
1.598240
1.608016
1.637341
1.451613
3.328446
1.363636
1.001955
1.642229
1.739980
1.783969
1.832845
1.847507
1.891496
1.930596
1.994135
2.047898
2.038123
1.867058
1.666667
1.578690
1.603128
1.622678
1.647116
1.676442
1.691105
1.700880
1.700880
1.783969
1.930596
1.945259
1.710655
1.608016
1.617791
1.652004
1.427175
2.927664
1.999022
0.899316
1.593353
1.744868
1.803519
1.837732
1.867058
1.891496
1.945259
2.008798
2.062561
2.072336
1.925709
1.730205
1.632454
1.617791
1.637341
1.671554
1.700880
1.695992
1.705767
1.700880
1.779081
1.891496
1.974585
1.749756
1.612903
1.612903
1.642229
1.476051
2.248289
2.800586
0.835777
1.515151
1.695992
1.754643
1.808407
1.847507
1.876833
1.925709
1.994135
2.062561
2.082111
1.974585
1.764418
1.627566
1.588465
1.608016
1.637341
1.656891
1.681329
1.676442
1.691105
1.764418
1.891496
1.964809
1.764418
1.612903
1.608016
1.652004
1.456501
2.463343
2.453568
0.821114
1.476051
1.700880
1.759531
1.798631
1.847507
1.876833
1.935484
1.999022
2.062561
2.077224
1.945259
1.730205
1.593353
1.568915
1.598240
1.627566
1.656891
1.691105
1.710655
1.725318
1.808407
1.950147
1.969697
1.720430
1.617791
1.627566
1.642229
1.412512
2.800586
2.082111
0.830889
1.505376
1.700880
1.764418
1.803519
1.847507
1.876833
1.935484
1.989247
2.038123
2.043011
1.886608
1.691105
1.588465
1.593353
1.622678
1.652004
1.666667
1.691105
1.700880
1.720430
1.744868
1.837732
1.974585
1.911046
1.652004
1.603128
1.603128
1.637341
1.480938
3.553275
1.290323
1.104594
1.632454
1.735093
1.783969
1.823069
1.862170
1.911046
1.950147
2.023460
2.082111
2.062561
1.857283
1.666667
1.603128
1.612903
1.647116
1.676442
1.695992
1.705767
1.720430
1.725318
1.730205
1.779081
1.886608
1.989247
1.803519
1.632454
1.617791
1.632454
1.568915
1.862170
3.401760
0.894428
1.344086
1.617791
1.691105
1.739980
1.793744
1.832845
1.896383
1.945259
2.018573
2.077224
2.003910
1.783969
1.642229
1.573803
1.578690
1.603128
1.637341
1.656891
1.676442
1.681329
1.695992
1.700880
1.715543
1.725318
1.808407
1.930596
2.003910
1.759531
1.632454
1.627566
1.652004
1.446725
2.531769
2.683284
0.840665
1.520039
1.666667
1.739980
1.788856
1.827957
1.876833
1.925709
1.994135
2.072336
2.086999
1.959922
1.744868
1.632454
1.568915
1.583578
1.617791
1.652004
1.686217
1.691105
1.705767
1.715543
1.720430
1.735093
1.720430
1.759531
1.857283
1.974585
1.803519
1.632454
1.608016
1.637341
1.529814
1.871945
3.035191
0.826002
1.397849
1.691105
1.759531
1.803519
1.837732
1.876833
1.920821
1.979472
2.057673
2.101662
2.008798
1.788856
1.632454
1.593353
1.617791
1.647116
1.661779
1.686217
1.691105
1.705767
1.695992
1.715543
1.735093
1.739980
1.744868
1.769306
1.847507
1.969697
1.940371
1.710655
1.632454
1.642229
1.642229
1.485826
3.431085
1.187683
1.207234
1.681329
1.774194
1.823069
1.857283
1.886608
1.920821
1.974585
2.067449
2.096774
2.062561
1.867058
1.666667
1.573803
1.588465
1.608016
1.647116
1.695992
1.691105
1.695992
1.705767
1.715543
1.720430
1.793744
1.915933
1.964809
1.749756
1.598240
1.603128
1.637341
1.402737
2.556207
2.091886
0.850440
1.495601
1.739980
1.793744
1.832845
1.871945
1.901271
1.955034
2.008798
2.062561
2.077224
1.940371
1.730205
1.632454
1.647116
1.642229
1.666667
1.681329
1.691105
1.700880
1.725318
1.735093
1.749756
1.798631
1.911046
2.033236
1.808407
1.647116
1.642229
1.661779
1.485826
2.262952
2.609971
0.826002
1.466276
1.700880
1.769306
1.808407
1.852395
1.891496
1.930596
1.989247
2.062561
2.091886
1.969697
1.744868
1.612903
1.608016
1.603128
1.642229
1.676442
1.700880
1.715543
1.720430
1.725318
1.764418
1.857283
1.979472
1.832845
1.632454
1.598240
1.622678
1.568915
1.759531
3.328446
0.923754
1.358749
1.681329
1.749756
1.803519
1.842620
1.876833
1.911046
1.979472
2.057673
2.106549
2.018573
1.774194
1.617791
1.578690
1.588465
1.632454
1.656891
1.691105
1.705767
1.715543
1.754643
1.744868
1.842620
1.979472
1.842620
1.642229
1.627566
1.647116
1.622678
1.735093
3.240469
0.962854
1.265885
1.700880
1.759531
1.803519
1.823069
1.862170
1.911046
1.969697
2.052786
2.106549
2.008798
1.779081
1.622678
1.583578
1.583578
1.612903
1.647116
1.676442
1.681329
1.705767
1.710655
1.720430
1.813294
1.989247
1.940371
1.691105
1.617791
1.627566
1.661779
1.427175
3.147605
1.744868
0.918866
1.559140
1.715543
1.779081
1.827957
1.857283
1.891496
1.959922
2.028348
2.096774
2.077224
1.886608
1.681329
1.588465
1.593353
1.612903
1.637341
1.691105
1.720430
1.700880
1.715543
1.715543
1.739980
1.754643
1.857283
1.989247
1.867058
1.652004
1.622678
1.627566
1.637341
1.559140
3.651026
1.153470
1.173020
1.632454
1.730205
1.788856
1.823069
1.867058
1.906158
1.964809
2.038123
2.096774
2.038123
1.827957
1.652004
1.593353
1.617791
1.656891
1.676442
1.695992
1.720430
1.725318
1.715543
1.730205
1.739980
1.749756
1.749756
1.744868
1.744868
1.774194
1.857283
1.979472
1.915933
1.691105
1.652004
1.656891
1.681329
1.451613
3.582600
1.500489
1.085044
1.598240
1.705767
1.754643
1.793744
1.847507
1.896383
1.964809
2.047898
2.116324
2.106549
1.906158
1.676442
1.573803
1.588465
1.598240
1.632454
1.661779
1.691105
1.700880
1.710655
1.710655
1.744868
1.720430
1.730205
1.730205
1.739980
1.739980
1.735093
1.739980
1.754643
1.754643
1.754643
1.754643
1.764418
1.769306
1.842620
1.940371
1.940371
1.715543
1.642229
1.652004
1.671554
1.451613
2.629521
2.316715
0.850440
1.466276
1.710655
1.783969
1.813294
1.847507
1.881720
1.940371
1.989247
2.082111
2.116324
2.023460
1.793744
1.627566
1.564027
1.588465
1.617791
1.652004
1.671554
1.676442
1.695992
1.705767
1.715543
1.715543
1.710655
1.715543
1.720430
1.739980
1.735093
1.739980
1.749756
1.779081
1.857283
1.974585
1.896383
1.691105
1.637341
1.656891
1.666667
1.510264
3.504399
1.329423
1.016618
1.608016
1.735093
1.798631
1.832845
1.867058
1.896383
1.955034
2.028348
2.096774
2.086999
1.911046
1.686217
1.588465
1.583578
1.637341
1.642229
1.681329
1.700880
1.725318
1.725318
1.725318
1.725318
1.730205
1.735093
1.744868
1.744868
1.739980
1.744868
1.749756
1.779081
1.852395
1.940371
1.994135
1.783969
1.637341
1.637341
1.652004
1.476051
2.429130
2.991202
0.752688
1.441838
1.642229
1.715543
1.769306
1.818182
1.857283
1.896383
1.969697
2.047898
2.096774
2.028348
1.803519
1.608016
1.554252
1.559140
1.593353
1.637341
1.671554
1.700880
1.705767
1.720430
1.720430
1.720430
1.715543
1.715543
1.715543
1.720430
1.735093
1.739980
1.744868
1.798631
1.881720
1.989247
1.842620
1.656891
1.627566
1.671554
1.603128
1.730205
3.690127
0.918866
1.314761
1.627566
1.759531
1.769306
1.774194
1.818182
1.896383
1.950147
2.038123
2.106549
2.028348
1.823069
1.608016
1.515151
1.505376
1.564027
1.598240
1.691105
1.647116
1.705767
1.705767
1.744868
1.730205
1.744868
1.744868
1.779081
1.744868
1.725318
1.744868
1.744868
1.783969
1.891496
1.989247
1.901271
1.691105
1.627566
1.666667
1.710655
1.578690
3.753666
1.324536
1.324536
1.573803
1.461388
1.353861
1.490714
2.013685
2.233627
2.350929
2.365591
2.341153
2.233627
1.896383
1.598240
1.485826
1.520039
1.524927
1.593353
1.652004
1.622678
1.534702
1.637341
1.700880
1.700880
1.759531
1.686217
1.710655
1.720430
1.769306
1.735093
1.808407
1.955034
1.974585
1.700880
1.564027
1.578690
1.627566
1.422287
2.956989
1.901271
0.821114
1.681329
1.930596
1.876833
1.823069
1.735093
1.730205
1.876833
2.062561
2.062561
2.023460
1.871945
1.666667
1.534702
1.539589
1.617791
1.671554
1.656891
1.652004
1.627566
1.705767
1.700880
1.744868
1.749756
1.710655
1.730205
1.862170
1.994135
1.886608
1.642229
1.627566
1.686217
1.671554
1.764418
3.514174
0.767351
1.177908
1.739980
1.827957
1.876833
1.881720
1.881720
1.891496
1.955034
2.038123
2.096774
2.047898
1.847507
1.642229
1.573803
1.588465
1.612903
1.656891
1.681329
1.700880
1.705767
1.691105
1.710655
1.735093
1.798631
1.906158
2.013685
1.857283
1.637341
1.622678
1.652004
1.627566
1.793744
3.445748
0.718475
1.212121
1.735093
1.823069
1.862170
1.886608
1.911046
1.959922
2.018573
2.091886
2.126100
2.052786
1.832845
1.632454
1.564027
1.529814
1.520039
1.534702
1.593353
1.642229
1.676442
